1778.52000,0.01519
1777.03021,0.02286
1775.54042,0.01748
1774.05063,0.01697
1772.56085,0.00994
1771.07106,0.01190
1769.58127,0.01485
1768.09148,0.01322
1766.60169,0.01549
1765.11190,0.01101
1763.62212,0.01309
1762.13233,0.01494
1760.64254,0.01174
1759.15275,0.00517
1757.66296,0.00202
1756.17317,0.00979
1754.68339,0.01031
1753.19360,0.00093
1751.70381,0.00804
1750.21402,0.00404
1748.72423,0.00733
1747.23444,0.01427
1745.74465,0.00719
1744.25487,0.00570
1742.76508,0.00787
1741.27529,0.00861
1739.78550,0.00817
1738.29571,0.01210
1736.80592,0.01461
1735.31614,0.00358
1733.82635,0.01219
1732.33656,0.00412
1730.84677,0.00551
1729.35698,0.01225
1727.86719,0.01273
1726.37740,0.01419
1724.88762,0.00963
1723.39783,0.01235
1721.90804,0.00832
1720.41825,0.00334
1718.92846,0.00202
1717.43867,0.01110
1715.94889,0.01948
1714.45910,0.00803
1712.96931,0.01306
1711.47952,0.00287
1709.98973,0.01207
1708.49994,0.01645
1707.01016,0.01492
1705.52037,0.01342
1704.03058,0.00553
1702.54079,0.00928
1701.05100,0.00579
1699.56121,0.00523
1698.07142,0.01680
1696.58164,0.01943
1695.09185,0.01846
1693.60206,0.00202
1692.11227,0.01000
1690.62248,0.02333
1689.13269,0.01876
1687.64291,0.01568
1686.15312,0.02205
1684.66333,0.01756
1683.17354,0.01769
1681.68375,0.01954
1680.19396,0.01294
1678.70417,0.02477
1677.21439,0.02403
1675.72460,0.01944
1674.23481,0.03666
1672.74502,0.03018
1671.25523,0.03147
1669.76544,0.04829
1668.27566,0.04236
1666.78587,0.04276
1665.29608,0.04342
1663.80629,0.06057
1662.31650,0.07024
1660.82671,0.08114
1659.33693,0.07173
1657.84714,0.07880
1656.35735,0.06920
1654.86756,0.07003
1653.37777,0.06604
1651.88798,0.07660
1650.39819,0.07338
1648.90841,0.07721
1647.41862,0.07550
1645.92883,0.07575
1644.43904,0.07602
1642.94925,0.07171
1641.45946,0.07542
1639.96968,0.07382
1638.47989,0.10058
1636.99010,0.09734
1635.50031,0.09969
1634.01052,0.09456
1632.52073,0.09066
1631.03094,0.10519
1629.54116,0.10546
1628.05137,0.12367
1626.56158,0.09469
1625.07179,0.09067
1623.58200,0.11040
1622.09221,0.10304
1620.60243,0.10660
1619.11264,0.10316
1617.62285,0.10071
1616.13306,0.09539
1614.64327,0.08234
1613.15348,0.09957
1611.66370,0.09601
1610.17391,0.09829
1608.68412,0.10034
1607.19433,0.09782
1605.70454,0.08975
1604.21475,0.09709
1602.72496,0.10444
1601.23518,0.10154
1599.74539,0.09720
1598.25560,0.09579
1596.76581,0.11135
1595.27602,0.09450
1593.78623,0.08832
1592.29645,0.08822
1590.80666,0.08693
1589.31687,0.07695
1587.82708,0.07304
1586.33729,0.08248
1584.84750,0.08080
1583.35771,0.08278
1581.86793,0.08357
1580.37814,0.07519
1578.88835,0.07361
1577.39856,0.09578
1575.90877,0.07512
1574.41898,0.04818
1572.92920,0.05953
1571.43941,0.04427
1569.94962,0.04731
1568.45983,0.05037
1566.97004,0.03882
1565.48025,0.03140
1563.99047,0.03199
1562.50068,0.02462
1561.01089,0.02478
1559.52110,0.02642
1558.03131,0.02057
1556.54152,0.01668
1555.05173,0.01573
1553.56195,0.01528
1552.07216,0.01825
1550.58237,0.01833
1549.09258,0.00439
1547.60279,0.01978
1546.11300,0.00202
1544.62322,0.01523
1543.13343,0.01393
1541.64364,0.01290
1540.15385,0.01395
1538.66406,0.01503
1537.17427,0.00511
1535.68448,0.01830
1534.19470,0.02765
1532.70491,0.02878
1531.21512,0.02365
1529.72533,0.03548
1528.23554,0.03451
1526.74575,0.04325
1525.25597,0.03918
1523.76618,0.03586
1522.27639,0.03401
1520.78660,0.05108
1519.29681,0.05170
1517.80702,0.03903
1516.31724,0.03825
1514.82745,0.03944
1513.33766,0.04960
1511.84787,0.05979
1510.35808,0.05789
1508.86829,0.05190
1507.37850,0.06119
1505.88872,0.04460
1504.39893,0.05927
1502.90914,0.07347
1501.41935,0.06034
1499.92956,0.07169
1498.43977,0.08548
1496.94999,0.07654
1495.46020,0.08045
1493.97041,0.07301
1492.48062,0.09319
1490.99083,0.10275
1489.50104,0.10288
1488.01125,0.11684
1486.52147,0.13083
1485.03168,0.14048
1483.54189,0.15209
1482.05210,0.17680
1480.56231,0.20903
1479.07252,0.22919
1477.58274,0.24041
1476.09295,0.24730
1474.60316,0.24719
1473.11337,0.25195
1471.62358,0.25019
1470.13379,0.26589
1468.64401,0.26685
1467.15422,0.28599
1465.66443,0.29510
1464.17464,0.30424
1462.68485,0.35056
1461.19506,0.38457
1459.70527,0.42392
1458.21549,0.48751
1456.72570,0.54604
1455.23591,0.56512
1453.74612,0.61305
1452.25633,0.65785
1450.76654,0.68911
1449.27676,0.72040
1447.78697,0.69239
1446.29718,0.68184
1444.80739,0.67132
1443.31760,0.66082
1441.82781,0.57819
1440.33802,0.54037
1438.84824,0.50622
1437.35845,0.48225
1435.86866,0.44911
1434.37887,0.50316
1432.88908,0.53713
1431.39929,0.57912
1429.90951,0.65841
1428.41972,0.72636
1426.92993,0.79117
1425.44014,0.84270
1423.95035,0.85721
1422.46056,0.87173
1420.97078,0.89621
1419.48099,0.92629
1417.99120,0.95445
1416.50141,0.96931
1415.01162,0.93409
1413.52183,0.88872
1412.03204,0.82787
1410.54226,0.75906
1409.05247,0.70141
1407.56268,0.66074
1406.07289,0.59152
1404.58310,0.55658
1403.09331,0.52166
1401.60353,0.47116
1400.11374,0.41317
1398.62395,0.38353
1397.13416,0.32607
1395.64437,0.27421
1394.15458,0.21922
1392.66479,0.22309
1391.17501,0.18510
1389.68522,0.12341
1388.19543,0.09006
1386.70564,0.08193
1385.21585,0.07381
1383.72606,0.05240
1382.23628,0.04676
1380.74649,0.02903
1379.25670,0.03965
1377.76691,0.02827
1376.27712,0.01642
1374.78733,0.00000
1373.29755,0.00099
1371.80776,0.00079
1370.31797,0.00739
1368.82818,0.00469
1367.33839,0.00202
1365.84860,0.00889
1364.35881,0.02717
1362.86903,0.04280
1361.37924,0.05096
1359.88945,0.06132
1358.39966,0.09058
1356.90987,0.12883
1355.42008,0.15645
1353.93030,0.22865
1352.44051,0.25692
1350.95072,0.28522
1349.46093,0.37104
1347.97114,0.44043
1346.48135,0.53622
1344.99156,0.57103
1343.50178,0.64291
1342.01199,0.69157
1340.52220,0.72766
1339.03241,0.82648
1337.54262,0.89143
1336.05283,0.90157
1334.56305,0.91173
1333.07326,0.96126
1331.58347,0.92486
1330.09368,0.92383
1328.60389,0.90661
1327.11410,0.94727
1325.62432,0.92695
1324.13453,0.87105
1322.64474,0.84957
1321.15495,0.79832
1319.66516,0.76139
1318.17537,0.72448
1316.68558,0.65151
1315.19580,0.59867
1313.70601,0.56958
1312.21622,0.54729
1310.72643,0.51825
1309.23664,0.47761
1307.74685,0.45539
1306.25707,0.41092
1304.76728,0.37738
1303.27749,0.34385
1301.78770,0.32875
1300.29791,0.27421
1298.80812,0.24415
1297.31834,0.19958
1295.82855,0.17441
1294.33876,0.14394
1292.84897,0.12704
1291.35918,0.10364
1289.86939,0.10326
1288.37960,0.10290
1286.88982,0.09821
1285.40003,0.07660
1283.91024,0.07316
1282.42045,0.04942
1280.93066,0.06153
1279.44087,0.05938
1277.95109,0.05532
1276.46130,0.02949
1274.97151,0.03153
1273.48172,0.03359
1271.99193,0.04729
1270.50214,0.03391
1269.01235,0.02805
1267.52257,0.02682
1266.03278,0.02465
1264.54299,0.01692
1263.05320,0.03828
1261.56341,0.03037
1260.07362,0.02247
1258.58384,0.01582
1257.09405,0.00894
1255.60426,0.02001
1254.11447,0.00907
1252.62468,0.00638
1251.13489,0.00202
1249.64511,0.00807
1248.15532,0.01825
1246.66553,0.01479
1245.17574,0.01134
1243.68595,0.01628
1242.19616,0.02196
1240.70637,0.02524
1239.21659,0.01185
1237.72680,0.02705
1236.23701,0.02266
1234.74722,0.00667
1233.25743,0.00620
1231.76764,0.00575
1230.27786,0.00800
1228.78807,0.02407
1227.29828,0.01788
1225.80849,0.01923
1224.31870,0.01721
1222.82891,0.02054
1221.33912,0.01034
1219.84934,0.01941
1218.35955,0.02850
1216.86976,0.02127
1215.37997,0.03538
1213.89018,0.06766
1212.40039,0.07189
1210.91061,0.07807
1209.42082,0.07532
1207.93103,0.07635
1206.44124,0.07741
1204.95145,0.06795
1203.46166,0.06312
1201.97188,0.07574
1200.48209,0.07023
1198.99230,0.05990
1197.50251,0.04548
1196.01272,0.03738
1194.52293,0.04298
1193.03314,0.04861
1191.54336,0.04518
1190.05357,0.04395
1188.56378,0.02968
1187.07399,0.02148
1185.58420,0.01693
1184.09441,0.01048
1182.60463,0.01397
1181.11484,0.01749
1179.62505,0.02490
1178.13526,0.01636
1176.64547,0.01027
1175.15568,0.00516
1173.66589,0.00202
1172.17611,0.01546
1170.68632,0.01173
1169.19653,0.00802
1167.70674,0.02783
1166.21695,0.03676
1164.72716,0.04306
1163.23738,0.04284
1161.74759,0.04240
1160.25780,0.05675
1158.76801,0.06544
1157.27822,0.07416
1155.78843,0.08495
1154.29865,0.10473
1152.80886,0.09959
1151.31907,0.11119
1149.82928,0.11143
1148.33949,0.13905
1146.84970,0.15035
1145.35991,0.16168
1143.87013,0.18671
1142.38034,0.17399
1140.89055,0.18115
1139.40076,0.20262
1137.91097,0.21709
1136.42118,0.23159
1134.93140,0.23667
1133.44161,0.24177
1131.95182,0.25803
1130.46203,0.26730
1128.97224,0.27586
1127.48245,0.27283
1125.99266,0.27587
1124.50288,0.29903
1123.01309,0.29292
1121.52330,0.28684
1120.03351,0.28078
1118.54372,0.28515
1117.05393,0.26751
1115.56415,0.24046
1114.07436,0.25483
1112.58457,0.25627
1111.09478,0.25774
1109.60499,0.27872
1108.11520,0.26147
1106.62542,0.24473
1105.13563,0.24568
1103.64584,0.24352
1102.15605,0.23556
1100.66626,0.23042
1099.17647,0.22530
1097.68668,0.23388
1096.19690,0.21803
1094.70711,0.20850
1093.21732,0.24064
1091.72753,0.23915
1090.23774,0.23623
1088.74795,0.23333
1087.25817,0.20238
1085.76838,0.18500
1084.27859,0.20518
1082.78880,0.21085
1081.29901,0.20493
1079.80922,0.19830
1078.31943,0.21083
1076.82965,0.22338
1075.33986,0.24225
1073.85007,0.22555
1072.36028,0.22655
1070.87049,0.23919
1069.38070,0.27195
1067.89092,0.28646
1066.40113,0.30100
1064.91134,0.40768
1063.42155,0.49090
1061.93176,0.59448
1060.44197,0.69543
1058.95219,0.77993
1057.46240,0.82039
1055.97261,0.86088
1054.48282,0.97669
1052.99303,1.04918
1051.50324,1.03913
1050.01345,1.05115
1048.52367,1.04696
1047.03388,1.04389
1045.54409,1.04084
1044.05430,0.97619
1042.56451,0.88349
1041.07472,0.81889
1039.58494,0.76739
1038.09515,0.69026
1036.60536,0.65394
1035.11557,0.61765
1033.62578,0.51927
1032.13599,0.45264
1030.64620,0.38870
1029.15642,0.32236
1027.66663,0.30398
1026.17684,0.28562
1024.68705,0.23316
1023.19726,0.19427
1021.70747,0.18059
1020.21769,0.14804
1018.72790,0.14240
1017.23811,0.13521
1015.74832,0.12804
1014.25853,0.10309
1012.76874,0.07575
1011.27896,0.08185
1009.78917,0.07708
1008.29938,0.05877
1006.80959,0.05235
1005.31980,0.04595
1003.83001,0.02723
1002.34022,0.00902
1000.85044,0.01673
999.36065,0.03101
997.87086,0.03648
996.38107,0.04197
994.89128,0.04324
993.40149,0.08595
991.91171,0.10059
990.42192,0.11622
988.93213,0.12316
987.44234,0.12565
985.95255,0.12815
984.46276,0.12524
982.97297,0.10225
981.48319,0.08946
979.99340,0.08662
978.50361,0.07460
977.01382,0.06260
975.52403,0.04046
974.03424,0.02828
972.54446,0.01538
971.05467,0.00324
969.56488,0.00202
968.07509,0.00571
966.58530,0.00943
965.09551,0.01099
963.60573,0.01161
962.11594,0.00184
960.62615,0.00105
959.13636,0.00528
957.64657,0.00953
956.15678,0.01513
954.66699,0.02657
953.17721,0.02932
951.68742,0.05073
950.19763,0.05365
948.70784,0.05659
947.21805,0.06427
945.72826,0.05213
944.23848,0.06228
942.74869,0.07997
941.25890,0.11801
939.76911,0.11928
938.27932,0.12057
936.78953,0.17540
935.29974,0.19272
933.80996,0.20062
932.32017,0.23106
930.83038,0.21928
929.34059,0.20752
927.85080,0.24336
926.36101,0.27414
924.87123,0.30131
923.38144,0.35441
921.89165,0.39192
920.40186,0.42945
918.91207,0.50781
917.42228,0.64260
915.93250,0.77645
914.44271,0.94470
912.95292,1.05257
911.46313,1.16046
909.97334,1.40796
908.48355,1.64095
906.99376,1.80884
905.50398,1.89322
904.01419,1.89676
902.52440,1.90032
901.03461,1.94700
899.54482,2.00000
898.05503,1.90679
896.56525,1.69157
895.07546,1.54671
893.58567,1.40188
892.09588,1.12015
890.60609,0.92440
889.11630,0.68533
887.62651,0.51263
886.13673,0.45060
884.64694,0.38859
883.15715,0.27407
881.66736,0.19007
880.17757,0.13201
878.68778,0.12119
877.19800,0.11039
875.70821,0.04998
874.21842,0.03269
872.72863,0.02680
871.23884,0.00593
869.74905,0.00396
868.25927,0.00202
866.76948,0.00654
865.27969,0.03482
863.78990,0.04448
862.30011,0.06191
860.81032,0.05769
859.32053,0.05350
857.83075,0.04872
856.34096,0.06479
854.85117,0.09227
853.36138,0.09870
851.87159,0.11267
850.38180,0.12665
848.89202,0.15132
847.40223,0.17625
845.91244,0.20242
844.42265,0.20887
842.93286,0.21536
841.44307,0.21641
839.95329,0.22839
838.46350,0.23385
836.97371,0.25944
835.48392,0.25708
833.99413,0.25475
832.50434,0.27048
831.01455,0.25887
829.52477,0.23469
828.03498,0.21466
826.54519,0.19368
825.05540,0.17273
823.56561,0.16536
822.07582,0.14058
820.58604,0.14125
819.09625,0.13395
817.60646,0.12667
816.11667,0.13177
814.62688,0.14173
813.13709,0.12508
811.64730,0.12807
810.15752,0.13048
808.66773,0.13291
807.17794,0.14324
805.68815,0.16569
804.19836,0.15694
802.70857,0.15729
801.21879,0.15766
799.72900,0.14534
798.23921,0.13523
796.74942,0.15710
795.25963,0.15200
793.76984,0.14693
792.28006,0.15822
790.79027,0.16033
789.30048,0.17627
787.81069,0.19102
786.32090,0.20834
784.83111,0.22568
783.34132,0.24559
781.85154,0.32145
780.36175,0.37676
778.87196,0.38245
777.38217,0.38817
775.89238,0.39803
774.40259,0.43043
772.91281,0.40475
771.42302,0.38369
769.93323,0.36265
768.44344,0.31646
766.95365,0.25189
765.46386,0.24230
763.97407,0.20006
762.48429,0.17793
760.99450,0.15583
759.50471,0.11922
758.01492,0.11242
756.52513,0.10080
755.03534,0.09901
753.54556,0.09724
752.05577,0.08932
750.56598,0.06787
749.07619,0.05540
747.58640,0.05386
746.09661,0.05233
744.60683,0.04260
743.11704,0.04644
741.62725,0.02489
740.13746,0.01899
738.64767,0.01310
737.15788,0.02891
735.66809,0.01593
734.17831,0.01459
732.68852,0.01038
731.19873,0.00619
729.70894,0.00202
728.21915,0.00750
726.72936,0.01156
725.23958,0.00305
723.74979,0.01015
722.26000,0.01727
720.77021,0.00202
719.28042,0.01031
717.79063,0.02008
716.30084,0.02249
714.81106,0.02492
713.32127,0.03137
711.83148,0.03204
710.34169,0.03345
708.85190,0.03489
707.36211,0.03636
705.87233,0.03276
704.38254,0.03959
702.89275,0.05784
701.40296,0.05189
699.91317,0.04597
698.42338,0.08583
696.93360,0.08044
695.44381,0.10800
693.95402,0.12311
692.46423,0.13825
690.97444,0.13610
689.48465,0.16667
687.99486,0.18684
686.50508,0.19263
685.01529,0.19845
683.52550,0.24727
682.03571,0.27626
680.54592,0.29994
679.05613,0.29726
677.56635,0.29460
676.07656,0.26824
674.58677,0.25183
673.09698,0.24924
671.60719,0.23760
670.11740,0.22598
668.62761,0.20240
667.13783,0.18248
665.64804,0.16657
664.15825,0.15069
662.66846,0.14173
661.17867,0.12021
659.68888,0.10646
658.19910,0.08208
656.70931,0.05773
655.21952,0.05543
653.72973,0.04565
652.23994,0.04775
650.75015,0.03923
649.26037,0.03073
647.77058,0.04962
646.28079,0.04189
644.79100,0.04993
643.30121,0.06162
641.81142,0.07334
640.32163,0.07201
638.83185,0.05932
637.34206,0.04544
635.85227,0.03486
634.36248,0.02430
632.87269,0.00202
631.38290,0.01541
629.89312,0.02157
628.40333,0.01831
626.91354,0.01507
625.42375,0.00701
623.93396,0.01956
622.44417,0.02220
620.95438,0.02487
619.46460,0.05685
617.97481,0.07143
616.48502,0.08603
614.99523,0.10187
613.50544,0.11773
612.01565,0.12902
610.52587,0.18149
609.03608,0.22623
607.54629,0.24691
606.05650,0.26761
604.56671,0.31655
603.07692,0.37301
601.58714,0.39875
600.09735,0.42451
598.60756,0.44109
597.11777,0.47295
595.62798,0.47361
594.13819,0.46484
592.64840,0.45610
591.15862,0.42704
589.66883,0.37913
588.17904,0.31719
586.68925,0.27586
585.19946,0.23455
583.70967,0.18891
582.21989,0.16823
580.73010,0.14527
579.24031,0.12234
577.75052,0.10561
576.26073,0.08527
574.77094,0.07948
573.28115,0.07165
571.79137,0.06385
570.30158,0.08936
568.81179,0.09795
567.32200,0.10100
565.83221,0.10407
564.34242,0.14420
562.85264,0.15434
561.36285,0.15506
559.87306,0.16246
558.38327,0.16989
556.89348,0.20361
555.40369,0.18554
553.91391,0.20248
552.42412,0.21944
550.93433,0.22009
549.44454,0.21495
547.95475,0.25656
546.46496,0.24311
544.97517,0.22969
543.48539,0.27089
541.99560,0.29468
540.50581,0.31534
539.01602,0.33603
537.52623,0.37491
536.03644,0.43221
534.54666,0.47645
533.05687,0.49373
531.56708,0.51103
530.07729,0.55801
528.58750,0.57330
527.09771,0.60338
525.60792,0.63349
524.11814,0.69001
522.62835,0.77028
521.13856,0.82855
519.64877,0.84870
518.15898,0.86888
516.66919,0.90639
515.17941,0.93037
513.68962,0.94070
512.19983,0.95104
510.71004,0.87970
509.22025,0.84663
507.73046,0.76638
506.24068,0.70225
504.75089,0.63815
503.26110,0.53230
501.77131,0.43374
500.28152,0.38520
498.79173,0.33669
497.30194,0.26193
495.81216,0.24603
494.32237,0.21223
492.83258,0.17846
491.34279,0.15707
489.85300,0.11681
488.36321,0.09860
486.87343,0.11020
485.38364,0.12183
483.89385,0.10636
482.40406,0.09310
480.91427,0.10020
479.42448,0.10732
477.93469,0.16894
476.44491,0.19354
474.95512,0.20291
473.46533,0.21231
471.97554,0.23432
470.48575,0.23456
468.99596,0.22393
467.50618,0.21878
466.01639,0.21365
464.52660,0.13748
463.03681,0.09353
461.54702,0.08714
460.05723,0.08077
458.56745,0.06039
457.07766,0.03857
455.58787,0.03203
454.09808,0.02552
452.60829,0.02871
451.11850,0.01571
449.62871,0.01834
448.13893,0.02100
446.64914,0.00202
445.15935,0.01101
443.66956,0.03480
442.17977,0.03658
440.68998,0.03838
439.20020,0.04916
437.71041,0.05222
436.22062,0.04284
434.73083,0.03347
433.24104,0.03661
431.75125,0.06252
430.26146,0.04682
428.77168,0.03113
427.28189,0.02177
425.79210,0.05916
424.30231,0.05965
422.81252,0.06017
421.32273,0.03129
419.83295,0.03996
418.34316,0.03958
416.85337,0.03922
415.36358,0.02763
413.87379,0.00202
412.38400,0.00264
410.89422,0.00328
409.40443,0.02925
407.91464,0.03466
406.42485,0.02799
404.93506,0.02946
403.44527,0.03095
401.95548,0.02411
400.46570,0.00906
398.97591,0.01583
397.48612,0.02262
395.99633,0.02096
394.50654,0.03869
393.01675,0.04180
391.52697,0.04493
390.03718,0.05693
388.54739,0.01641
387.05760,0.00920
385.56781,0.00202
384.07802,0.02604
382.58824,0.02684
381.09845,0.03541
379.60866,0.04401
378.11887,0.02938
376.62908,0.01430
375.13929,0.01159
373.64950,0.00890
372.15972,0.02246
370.66993,0.00747
369.18014,0.00473
367.69035,0.00202
366.20056,0.01609
364.71077,0.01952
363.22099,0.02903
361.73120,0.03857
360.24141,0.03821
358.75162,0.03108
357.26183,0.03876
355.77204,0.04645
354.28225,0.02391
352.79247,0.04569
351.30268,0.04862
349.81289,0.05157
348.32310,0.05527
346.83331,0.03526
345.34352,0.02485
343.85374,0.01446
342.36395,0.03181
340.87416,0.04895
339.38437,0.04068
337.89458,0.03244
336.40479,0.02157
334.91501,0.03250
333.42522,0.03257
331.93543,0.03266
330.44564,0.00735
328.95585,0.02056
327.46606,0.01128
325.97627,0.00202
324.48649,0.01608
322.99670,0.02847
321.50691,0.05565
320.01712,0.08286
318.52733,0.07595
317.03754,0.07270
315.54776,0.06886
314.05797,0.06505
312.56818,0.02749
311.07839,0.05000
309.58860,0.04408
308.09881,0.03819
306.60902,0.04430
305.11924,0.04487
303.62945,0.02343
302.13966,0.00202
300.64987,0.01012
299.16008,0.00202
