1778.52000,0.01281
1777.03021,0.01814
1775.54042,0.01785
1774.05063,0.02295
1772.56085,0.01539
1771.07106,0.01293
1769.58127,0.01050
1768.09148,0.01485
1766.60169,0.03189
1765.11190,0.01940
1763.62212,0.01058
1762.13233,0.01954
1760.64254,0.00515
1759.15275,0.00908
1757.66296,0.01586
1756.17317,0.01449
1754.68339,0.00611
1753.19360,0.00874
1751.70381,0.01139
1750.21402,0.00196
1748.72423,0.00579
1747.23444,0.00373
1745.74465,0.01291
1744.25487,0.01142
1742.76508,0.01643
1741.27529,0.01190
1739.78550,0.02569
1738.29571,0.01162
1736.80592,0.01420
1735.31614,0.00976
1733.82635,0.01774
1732.33656,0.00772
1730.84677,0.00871
1729.35698,0.00972
1727.86719,0.00963
1726.37740,0.01633
1724.88762,0.01009
1723.39783,0.01064
1721.90804,0.00080
1720.41825,0.01192
1718.92846,0.00280
1717.43867,0.01060
1715.94889,0.02040
1714.45910,0.00572
1712.96931,0.00515
1711.47952,0.01526
1709.98973,0.01019
1708.49994,0.01613
1707.01016,0.01730
1705.52037,0.01850
1704.03058,0.01466
1702.54079,0.01450
1701.05100,0.01240
1699.56121,0.01764
1698.07142,0.02657
1696.58164,0.03355
1695.09185,0.04703
1693.60206,0.02394
1692.11227,0.02452
1690.62248,0.04568
1689.13269,0.04546
1687.64291,0.03345
1686.15312,0.05300
1684.66333,0.05624
1683.17354,0.04683
1681.68375,0.05012
1680.19396,0.05653
1678.70417,0.06325
1677.21439,0.06154
1675.72460,0.08042
1674.23481,0.07680
1672.74502,0.06813
1671.25523,0.07638
1669.76544,0.09310
1668.27566,0.07550
1666.78587,0.07650
1665.29608,0.08514
1663.80629,0.10731
1662.31650,0.12444
1660.82671,0.11823
1659.33693,0.11654
1657.84714,0.11601
1656.35735,0.09775
1654.86756,0.10882
1653.37777,0.10948
1651.88798,0.10173
1650.39819,0.09850
1648.90841,0.10459
1647.41862,0.09804
1645.92883,0.09334
1644.43904,0.08866
1642.94925,0.10387
1641.45946,0.09459
1639.96968,0.08647
1638.47989,0.10682
1636.99010,0.11959
1635.50031,0.09014
1634.01052,0.10127
1632.52073,0.09131
1631.03094,0.11037
1629.54116,0.11594
1628.05137,0.10999
1626.56158,0.10548
1625.07179,0.11619
1623.58200,0.11341
1622.09221,0.11179
1620.60243,0.11075
1619.11264,0.12861
1617.62285,0.10988
1616.13306,0.10976
1614.64327,0.09024
1613.15348,0.10341
1611.66370,0.12195
1610.17391,0.13461
1608.68412,0.11237
1607.19433,0.11831
1605.70454,0.10429
1604.21475,0.10466
1602.72496,0.10505
1601.23518,0.10462
1599.74539,0.08844
1598.25560,0.11002
1596.76581,0.11164
1595.27602,0.11300
1593.78623,0.09974
1592.29645,0.12649
1590.80666,0.10455
1589.31687,0.10517
1587.82708,0.08581
1586.33729,0.10422
1584.84750,0.09533
1583.35771,0.08760
1581.86793,0.08806
1580.37814,0.10487
1578.88835,0.09299
1577.39856,0.08986
1575.90877,0.08901
1574.41898,0.07072
1572.92920,0.06992
1571.43941,0.06915
1569.94962,0.05952
1568.45983,0.04993
1566.97004,0.04923
1565.48025,0.04855
1563.99047,0.04424
1562.50068,0.04361
1561.01089,0.04386
1559.52110,0.04976
1558.03131,0.05259
1556.54152,0.04474
1555.05173,0.04086
1553.56195,0.04292
1552.07216,0.02360
1550.58237,0.03359
1549.09258,0.02643
1547.60279,0.01789
1546.11300,0.00515
1544.62322,0.00620
1543.13343,0.02558
1541.64364,0.01232
1540.15385,0.01457
1538.66406,0.01685
1537.17427,0.02789
1535.68448,0.01952
1534.19470,0.02384
1532.70491,0.02904
1531.21512,0.02271
1529.72533,0.00515
1528.23554,0.03151
1526.74575,0.04326
1525.25597,0.03701
1523.76618,0.05387
1522.27639,0.05218
1520.78660,0.04375
1519.29681,0.03281
1517.80702,0.04752
1516.31724,0.04649
1514.82745,0.05900
1513.33766,0.04985
1511.84787,0.04073
1510.35808,0.06373
1508.86829,0.05184
1507.37850,0.04082
1505.88872,0.06024
1504.39893,0.05715
1502.90914,0.08225
1501.41935,0.07978
1499.92956,0.07508
1498.43977,0.08026
1496.94999,0.08040
1495.46020,0.08929
1493.97041,0.11398
1492.48062,0.13193
1490.99083,0.13865
1489.50104,0.15552
1488.01125,0.15370
1486.52147,0.15190
1485.03168,0.19419
1483.54189,0.21089
1482.05210,0.24084
1480.56231,0.25083
1479.07252,0.28759
1477.58274,0.30720
1476.09295,0.33501
1474.60316,0.33833
1473.11337,0.34929
1471.62358,0.33521
1470.13379,0.33045
1468.64401,0.37104
1467.15422,0.37084
1465.66443,0.40036
1464.17464,0.42991
1462.68485,0.47005
1461.19506,0.48487
1459.70527,0.54786
1458.21549,0.61370
1456.72570,0.70237
1455.23591,0.76657
1453.74612,0.82487
1452.25633,0.85139
1450.76654,0.88919
1449.27676,0.85098
1447.78697,0.85786
1446.29718,0.85574
1444.80739,0.82930
1443.31760,0.80288
1441.82781,0.75663
1440.33802,0.65634
1438.84824,0.62676
1437.35845,0.58650
1435.86866,0.56063
1434.37887,0.59617
1432.88908,0.63568
1431.39929,0.69943
1429.90951,0.77362
1428.41972,0.86446
1426.92993,0.94997
1425.44014,0.98735
1423.95035,0.98956
1422.46056,0.99179
1420.97078,1.04529
1419.48099,1.06757
1417.99120,1.10395
1416.50141,1.08600
1415.01162,1.03767
1413.52183,1.00119
1412.03204,0.91208
1410.54226,0.85284
1409.05247,0.79925
1407.56268,0.71500
1406.07289,0.64373
1404.58310,0.61458
1403.09331,0.58545
1401.60353,0.50975
1400.11374,0.47180
1398.62395,0.42825
1397.13416,0.35628
1395.64437,0.29701
1394.15458,0.25240
1392.66479,0.23007
1391.17501,0.18946
1389.68522,0.13874
1388.19543,0.09367
1386.70564,0.08875
1385.21585,0.08387
1383.72606,0.05661
1382.23628,0.05192
1380.74649,0.05034
1379.25670,0.05583
1377.76691,0.02558
1376.27712,0.01225
1374.78733,0.00515
1373.29755,0.00709
1371.80776,0.02174
1370.31797,0.00628
1368.82818,0.01497
1367.33839,0.02369
1365.84860,0.01399
1364.35881,0.05359
1362.86903,0.05633
1361.37924,0.08388
1359.88945,0.08723
1358.39966,0.13031
1356.90987,0.15089
1355.42008,0.20754
1353.93030,0.25323
1352.44051,0.30881
1350.95072,0.36440
1349.46093,0.42960
1347.97114,0.49820
1346.48135,0.62428
1344.99156,0.67660
1343.50178,0.73992
1342.01199,0.77849
1340.52220,0.82638
1339.03241,0.91175
1337.54262,0.96673
1336.05283,0.98597
1334.56305,1.00523
1333.07326,1.04057
1331.58347,1.00328
1330.09368,1.01023
1328.60389,0.98905
1327.11410,0.97127
1325.62432,0.99350
1324.13453,0.93634
1322.64474,0.88850
1321.15495,0.82633
1319.66516,0.78713
1318.17537,0.74795
1316.68558,0.68050
1315.19580,0.63448
1313.70601,0.60960
1312.21622,0.56982
1310.72643,0.53683
1309.23664,0.50695
1307.74685,0.45711
1306.25707,0.42307
1304.76728,0.40411
1303.27749,0.38518
1301.78770,0.32051
1300.29791,0.28403
1298.80812,0.24870
1297.31834,0.20720
1295.82855,0.17502
1294.33876,0.14061
1292.84897,0.12115
1291.35918,0.10876
1289.86939,0.10511
1288.37960,0.10150
1286.88982,0.10354
1285.40003,0.08139
1283.91024,0.08573
1282.42045,0.06617
1280.93066,0.07957
1279.44087,0.07104
1277.95109,0.05661
1276.46130,0.04616
1274.97151,0.04558
1273.48172,0.04503
1271.99193,0.03493
1270.50214,0.04063
1269.01235,0.02776
1267.52257,0.03830
1266.03278,0.02914
1264.54299,0.01410
1263.05320,0.02020
1261.56341,0.02858
1260.07362,0.03698
1258.58384,0.02570
1257.09405,0.02289
1255.60426,0.03222
1254.11447,0.02467
1252.62468,0.02419
1251.13489,0.00515
1249.64511,0.01023
1248.15532,0.02322
1246.66553,0.02948
1245.17574,0.03576
1243.68595,0.03250
1242.19616,0.02700
1240.70637,0.01055
1239.21659,0.02567
1237.72680,0.02560
1236.23701,0.01091
1234.74722,0.02582
1233.25743,0.02231
1231.76764,0.01882
1230.27786,0.01888
1228.78807,0.00713
1227.29828,0.01231
1225.80849,0.01553
1224.31870,0.00752
1222.82891,0.03052
1221.33912,0.01918
1219.84934,0.02054
1218.35955,0.02192
1216.86976,0.03684
1215.37997,0.04363
1213.89018,0.06818
1212.40039,0.07388
1210.91061,0.07680
1209.42082,0.08847
1207.93103,0.08200
1206.44124,0.07556
1204.95145,0.08561
1203.46166,0.05768
1201.97188,0.06947
1200.48209,0.06721
1198.99230,0.06611
1197.50251,0.05742
1196.01272,0.04988
1194.52293,0.04252
1193.03314,0.03517
1191.54336,0.03109
1190.05357,0.03069
1188.56378,0.03793
1187.07399,0.04209
1185.58420,0.01727
1184.09441,0.00515
1182.60463,0.01264
1181.11484,0.02016
1179.62505,0.02432
1178.13526,0.04372
1176.64547,0.03864
1175.15568,0.00515
1173.66589,0.00922
1172.17611,0.01586
1170.68632,0.01562
1169.19653,0.01541
1167.70674,0.02803
1166.21695,0.02942
1164.72716,0.04688
1163.23738,0.04944
1161.74759,0.04950
1160.25780,0.06197
1158.76801,0.06362
1157.27822,0.06529
1155.78843,0.10684
1154.29865,0.09688
1152.80886,0.10553
1151.31907,0.10295
1149.82928,0.12319
1148.33949,0.14487
1146.84970,0.15151
1145.35991,0.15817
1143.87013,0.16669
1142.38034,0.16425
1140.89055,0.18409
1139.40076,0.19916
1137.91097,0.23284
1136.42118,0.25866
1134.93140,0.25902
1133.44161,0.25941
1131.95182,0.24842
1130.46203,0.25519
1128.97224,0.28395
1127.48245,0.28909
1125.99266,0.27143
1124.50288,0.30112
1123.01309,0.29506
1121.52330,0.28903
1120.03351,0.27598
1118.54372,0.29957
1117.05393,0.27446
1115.56415,0.29331
1114.07436,0.28515
1112.58457,0.28251
1111.09478,0.27989
1109.60499,0.27519
1108.11520,0.29585
1106.62542,0.27909
1105.13563,0.26460
1103.64584,0.27718
1102.15605,0.24612
1100.66626,0.23819
1099.17647,0.23028
1097.68668,0.23986
1096.19690,0.25621
1094.70711,0.26837
1093.21732,0.23663
1091.72753,0.26264
1090.23774,0.25783
1088.74795,0.25305
1087.25817,0.23802
1085.76838,0.21344
1084.27859,0.22071
1082.78880,0.22997
1081.29901,0.22996
1079.80922,0.24913
1078.31943,0.23171
1076.82965,0.21432
1075.33986,0.24342
1073.85007,0.24607
1072.36028,0.24988
1070.87049,0.25568
1069.38070,0.29502
1067.89092,0.31621
1066.40113,0.33744
1064.91134,0.41120
1063.42155,0.56271
1061.93176,0.64273
1060.44197,0.71544
1058.95219,0.85943
1057.46240,0.90769
1055.97261,0.95598
1054.48282,0.99866
1052.99303,1.08502
1051.50324,1.06665
1050.01345,1.05759
1048.52367,1.10995
1047.03388,1.09418
1045.54409,1.07844
1044.05430,0.97740
1042.56451,0.89891
1041.07472,0.80412
1039.58494,0.78426
1038.09515,0.70472
1036.60536,0.66195
1035.11557,0.61921
1033.62578,0.51947
1032.13599,0.45355
1030.64620,0.40709
1029.15642,0.34741
1027.66663,0.31944
1026.17684,0.29149
1024.68705,0.25019
1023.19726,0.20892
1021.70747,0.17696
1020.21769,0.16813
1018.72790,0.16635
1017.23811,0.16235
1015.74832,0.15837
1014.25853,0.11387
1012.76874,0.12628
1011.27896,0.14603
1009.78917,0.13793
1008.29938,0.11409
1006.80959,0.09519
1005.31980,0.07633
1003.83001,0.04326
1002.34022,0.00825
1000.85044,0.04649
999.36065,0.04954
997.87086,0.05375
996.38107,0.05798
994.89128,0.05548
993.40149,0.09581
991.91171,0.12152
990.42192,0.15007
988.93213,0.14063
987.44234,0.13854
985.95255,0.13647
984.46276,0.15808
982.97297,0.12198
981.48319,0.11211
979.99340,0.08423
978.50361,0.07440
977.01382,0.06460
975.52403,0.04496
974.03424,0.01916
972.54446,0.02970
971.05467,0.00845
969.56488,0.02383
968.07509,0.01615
966.58530,0.00849
965.09551,0.02311
963.60573,0.02423
962.11594,0.00989
960.62615,0.00515
959.13636,0.00502
957.64657,0.00492
956.15678,0.02710
954.66699,0.04029
953.17721,0.05125
951.68742,0.06674
950.19763,0.07254
948.70784,0.07836
947.21805,0.09590
945.72826,0.07855
944.23848,0.07755
942.74869,0.09995
941.25890,0.13420
939.76911,0.14792
938.27932,0.16166
936.78953,0.17036
935.29974,0.19401
933.80996,0.22642
932.32017,0.23294
930.83038,0.23245
929.34059,0.23198
927.85080,0.28026
926.36101,0.31335
924.87123,0.33999
923.38144,0.38327
921.89165,0.44460
920.40186,0.50596
918.91207,0.59324
917.42228,0.73743
915.93250,0.85941
914.44271,1.06335
912.95292,1.17340
911.46313,1.28348
909.97334,1.52524
908.48355,1.73857
906.99376,1.87816
905.50398,1.93920
904.01419,1.94070
902.52440,1.94223
901.03461,1.99772
899.54482,2.00000
898.05503,1.83954
896.56525,1.65236
895.07546,1.51927
893.58567,1.38621
892.09588,1.10504
890.60609,0.86727
889.11630,0.68078
887.62651,0.52641
886.13673,0.46627
884.64694,0.40614
883.15715,0.27494
881.66736,0.21220
880.17757,0.14300
878.68778,0.13338
877.19800,0.12379
875.70821,0.06734
874.21842,0.02500
872.72863,0.02886
871.23884,0.00515
869.74905,0.01001
868.25927,0.01491
866.76948,0.02532
865.27969,0.03885
863.78990,0.05889
862.30011,0.06543
860.81032,0.07158
859.32053,0.07775
857.83075,0.07620
856.34096,0.08031
854.85117,0.10528
853.36138,0.12690
851.87159,0.12433
850.38180,0.12178
848.89202,0.13333
847.40223,0.21362
845.91244,0.22692
844.42265,0.22123
842.93286,0.21557
841.44307,0.22415
839.95329,0.24796
838.46350,0.26476
836.97371,0.27708
835.48392,0.27422
833.99413,0.27138
832.50434,0.28518
831.01455,0.28127
829.52477,0.24246
828.03498,0.19945
826.54519,0.19111
825.05540,0.18279
823.56561,0.15196
822.07582,0.13468
820.58604,0.12869
819.09625,0.13272
817.60646,0.13677
816.11667,0.11734
814.62688,0.13820
813.13709,0.10473
811.64730,0.11297
810.15752,0.12701
808.66773,0.14107
807.17794,0.12403
805.68815,0.14589
804.19836,0.13510
802.70857,0.14138
801.21879,0.14768
799.72900,0.14203
798.23921,0.13980
796.74942,0.13026
795.25963,0.12990
793.76984,0.12957
792.28006,0.14517
790.79027,0.16587
789.30048,0.17110
787.81069,0.19494
786.32090,0.21135
784.83111,0.22778
783.34132,0.26831
781.85154,0.33506
780.36175,0.39226
778.87196,0.40499
777.38217,0.41774
775.89238,0.38715
774.40259,0.44811
772.91281,0.42968
771.42302,0.40804
769.93323,0.38642
768.44344,0.34216
766.95365,0.29792
765.46386,0.28751
763.97407,0.24304
762.48429,0.21070
760.99450,0.17839
759.50471,0.15681
758.01492,0.12878
756.52513,0.09880
755.03534,0.11136
753.54556,0.12395
752.05577,0.08898
750.56598,0.07684
749.07619,0.05317
747.58640,0.04418
746.09661,0.03521
744.60683,0.05415
743.11704,0.03960
741.62725,0.00705
740.13746,0.01832
738.64767,0.02961
737.15788,0.03262
735.66809,0.01988
734.17831,0.03167
732.68852,0.02870
731.19873,0.02576
729.70894,0.03480
728.21915,0.03937
726.72936,0.00792
725.23958,0.00716
723.74979,0.00614
722.26000,0.00515
720.77021,0.01364
719.28042,0.02695
717.79063,0.03943
716.30084,0.03815
714.81106,0.03689
713.32127,0.03340
711.83148,0.05274
710.34169,0.04931
708.85190,0.04434
707.36211,0.03941
705.87233,0.04224
704.38254,0.05016
702.89275,0.05079
701.40296,0.05496
699.91317,0.05916
698.42338,0.09225
696.93360,0.08960
695.44381,0.11344
693.95402,0.11845
692.46423,0.12347
690.97444,0.16091
689.48465,0.16936
687.99486,0.19418
686.50508,0.20691
685.01529,0.21966
683.52550,0.24850
682.03571,0.27454
680.54592,0.29638
679.05613,0.29656
677.56635,0.29677
676.07656,0.25814
674.58677,0.26516
673.09698,0.26685
671.60719,0.25984
670.11740,0.25285
668.62761,0.22054
667.13783,0.19952
665.64804,0.17993
664.15825,0.16037
662.66846,0.14084
661.17867,0.13569
659.68888,0.10353
658.19910,0.09308
656.70931,0.08266
655.21952,0.06127
653.72973,0.05625
652.23994,0.06054
650.75015,0.05106
649.26037,0.04161
647.77058,0.07132
646.28079,0.07262
644.79100,0.05958
643.30121,0.07458
641.81142,0.08961
640.32163,0.07946
638.83185,0.06792
637.34206,0.03304
635.85227,0.02381
634.36248,0.01461
632.87269,0.00515
631.38290,0.00570
629.89312,0.01389
628.40333,0.01422
626.91354,0.01457
625.42375,0.02424
623.93396,0.02859
622.44417,0.03465
620.95438,0.04073
619.46460,0.04318
617.97481,0.04819
616.48502,0.09040
614.99523,0.10658
613.50544,0.12278
612.01565,0.13831
610.52587,0.17639
609.03608,0.19732
607.54629,0.23137
606.05650,0.26544
604.56671,0.31094
603.07692,0.35168
601.58714,0.37724
600.09735,0.40282
598.60756,0.44871
597.11777,0.46533
595.62798,0.45832
594.13819,0.46021
592.64840,0.46212
591.15862,0.40056
589.66883,0.34719
588.17904,0.30454
586.68925,0.26882
585.19946,0.23312
583.70967,0.19337
582.21989,0.18124
580.73010,0.14998
579.24031,0.11875
577.75052,0.08979
576.26073,0.09465
574.77094,0.08828
573.28115,0.07756
571.79137,0.06687
570.30158,0.09380
568.81179,0.09315
567.32200,0.10197
565.83221,0.11081
564.34242,0.14431
562.85264,0.14827
561.36285,0.15226
559.87306,0.15289
558.38327,0.15355
556.89348,0.19534
555.40369,0.19521
553.91391,0.20607
552.42412,0.21697
550.93433,0.21634
549.44454,0.21743
547.95475,0.23122
546.46496,0.23925
544.97517,0.24732
543.48539,0.26202
541.99560,0.29562
540.50581,0.32276
539.01602,0.34994
537.52623,0.41177
536.03644,0.43842
534.54666,0.46116
533.05687,0.46351
531.56708,0.46589
530.07729,0.52475
528.58750,0.55688
527.09771,0.58383
525.60792,0.61080
524.11814,0.68525
522.62835,0.72818
521.13856,0.78719
519.64877,0.80018
518.15898,0.81320
516.66919,0.85229
515.17941,0.87395
513.68962,0.86240
512.19983,0.85088
510.71004,0.83797
509.22025,0.77215
507.73046,0.69847
506.24068,0.64776
504.75089,0.59708
503.26110,0.50939
501.77131,0.38625
500.28152,0.34367
498.79173,0.30111
497.30194,0.23268
495.81216,0.21889
494.32237,0.19134
492.83258,0.16381
491.34279,0.13011
489.85300,0.11389
488.36321,0.09235
486.87343,0.09364
485.38364,0.09496
483.89385,0.08194
482.40406,0.08809
480.91427,0.09526
479.42448,0.10245
477.93469,0.13430
476.44491,0.16759
474.95512,0.18372
473.46533,0.19989
471.97554,0.19354
470.48575,0.22975
468.99596,0.20684
467.50618,0.19959
466.01639,0.19236
464.52660,0.13827
463.03681,0.09378
461.54702,0.08719
460.05723,0.08062
458.56745,0.05395
457.07766,0.06193
455.58787,0.04615
454.09808,0.03039
452.60829,0.03958
451.11850,0.00515
449.62871,0.01652
448.13893,0.02792
446.64914,0.02921
445.15935,0.00574
443.66956,0.01553
442.17977,0.02337
440.68998,0.03124
439.20020,0.01857
437.71041,0.05380
436.22062,0.05822
434.73083,0.06267
433.24104,0.04391
431.75125,0.04601
430.26146,0.04884
428.77168,0.05169
427.28189,0.03500
425.79210,0.05945
424.30231,0.05647
422.81252,0.05351
421.32273,0.07663
419.83295,0.04711
418.34316,0.04127
416.85337,0.03545
415.36358,0.02262
413.87379,0.01460
412.38400,0.01323
410.89422,0.01188
409.40443,0.02477
407.91464,0.04417
406.42485,0.04304
404.93506,0.03967
403.44527,0.03634
401.95548,0.00515
400.46570,0.01595
398.97591,0.02115
397.48612,0.02638
395.99633,0.03979
394.50654,0.03127
393.01675,0.04206
391.52697,0.05288
390.03718,0.04837
388.54739,0.02643
387.05760,0.01648
385.56781,0.00656
384.07802,0.00864
382.58824,0.03159
381.09845,0.03077
379.60866,0.02997
378.11887,0.00907
376.62908,0.01409
375.13929,0.00703
373.64950,0.00000
372.15972,0.01410
370.66993,0.01443
369.18014,0.01281
367.69035,0.01122
366.20056,0.00515
364.71077,0.00571
363.22099,0.02263
361.73120,0.03957
360.24141,0.02106
358.75162,0.04819
357.26183,0.03959
355.77204,0.03100
354.28225,0.00217
352.79247,0.03870
351.30268,0.05540
349.81289,0.07212
348.32310,0.05493
346.83331,0.04706
345.34352,0.03697
343.85374,0.02690
342.36395,0.02079
340.87416,0.02626
339.38437,0.03119
337.89458,0.03614
336.40479,0.04028
334.91501,0.02669
333.42522,0.02975
331.93543,0.03283
330.44564,0.01201
328.95585,0.03232
327.46606,0.01872
325.97627,0.00515
324.48649,0.01186
322.99670,0.05493
321.50691,0.05973
320.01712,0.06455
318.52733,0.07531
317.03754,0.10525
315.54776,0.07734
314.05797,0.04945
312.56818,0.03637
311.07839,0.02023
309.58860,0.04409
308.09881,0.06798
306.60902,0.08232
305.11924,0.04121
303.62945,0.02434
302.13966,0.00750
300.64987,0.00515
299.16008,0.00515
