1778.52000,0.01593
1777.03021,0.01976
1775.54042,0.02072
1774.05063,0.01569
1772.56085,0.01537
1771.07106,0.02374
1769.58127,0.01767
1768.09148,0.00585
1766.60169,0.01696
1765.11190,0.01341
1763.62212,0.01167
1762.13233,0.00928
1760.64254,0.00558
1759.15275,0.02059
1757.66296,0.01204
1756.17317,0.01441
1754.68339,0.01703
1753.19360,0.01033
1751.70381,0.00700
1750.21402,0.00768
1748.72423,0.01129
1747.23444,0.00424
1745.74465,0.00499
1744.25487,0.00800
1742.76508,0.01214
1741.27529,0.01119
1739.78550,0.00803
1738.29571,0.01736
1736.80592,0.01136
1735.31614,0.01006
1733.82635,0.00967
1732.33656,0.01019
1730.84677,0.00673
1729.35698,0.01064
1727.86719,0.02213
1726.37740,0.01740
1724.88762,0.01092
1723.39783,0.00558
1721.90804,0.01774
1720.41825,0.00700
1718.92846,0.00868
1717.43867,0.01082
1715.94889,0.00943
1714.45910,0.01651
1712.96931,0.01094
1711.47952,0.00473
1709.98973,0.01321
1708.49994,0.01372
1707.01016,0.00991
1705.52037,0.00612
1704.03058,0.01270
1702.54079,0.01441
1701.05100,0.00702
1699.56121,0.00544
1698.07142,0.01068
1696.58164,0.00682
1695.09185,0.01169
1693.60206,0.01926
1692.11227,0.01106
1690.62248,0.01223
1689.13269,0.01186
1687.64291,0.01018
1686.15312,0.01564
1684.66333,0.01556
1683.17354,0.01862
1681.68375,0.01503
1680.19396,0.01992
1678.70417,0.01415
1677.21439,0.02731
1675.72460,0.02315
1674.23481,0.02857
1672.74502,0.02045
1671.25523,0.03260
1669.76544,0.04254
1668.27566,0.03004
1666.78587,0.03914
1665.29608,0.04759
1663.80629,0.04784
1662.31650,0.06057
1660.82671,0.06020
1659.33693,0.05985
1657.84714,0.04906
1656.35735,0.05143
1654.86756,0.06361
1653.37777,0.05957
1651.88798,0.06512
1650.39819,0.06758
1648.90841,0.07740
1647.41862,0.06300
1645.92883,0.06408
1644.43904,0.06518
1642.94925,0.08222
1641.45946,0.08326
1639.96968,0.06630
1638.47989,0.07273
1636.99010,0.07963
1635.50031,0.08632
1634.01052,0.07769
1632.52073,0.07553
1631.03094,0.07273
1629.54116,0.08486
1628.05137,0.08766
1626.56158,0.07959
1625.07179,0.07622
1623.58200,0.09578
1622.09221,0.08044
1620.60243,0.08447
1619.11264,0.08008
1617.62285,0.07548
1616.13306,0.06913
1614.64327,0.07437
1613.15348,0.08631
1611.66370,0.09938
1610.17391,0.09157
1608.68412,0.09000
1607.19433,0.08535
1605.70454,0.08984
1604.21475,0.09168
1602.72496,0.09355
1601.23518,0.08253
1599.74539,0.08556
1598.25560,0.08260
1596.76581,0.08723
1595.27602,0.07965
1593.78623,0.07164
1592.29645,0.07745
1590.80666,0.08618
1589.31687,0.07424
1587.82708,0.07812
1586.33729,0.08068
1584.84750,0.07927
1583.35771,0.07432
1581.86793,0.06761
1580.37814,0.07739
1578.88835,0.07562
1577.39856,0.07299
1575.90877,0.06904
1574.41898,0.05511
1572.92920,0.04965
1571.43941,0.04978
1569.94962,0.05071
1568.45983,0.05167
1566.97004,0.03607
1565.48025,0.03563
1563.99047,0.03276
1562.50068,0.03992
1561.01089,0.01574
1559.52110,0.00894
1558.03131,0.01995
1556.54152,0.01053
1555.05173,0.02648
1553.56195,0.01243
1552.07216,0.01820
1550.58237,0.00820
1549.09258,0.00000
1547.60279,0.00661
1546.11300,0.00701
1544.62322,0.00232
1543.13343,0.01211
1541.64364,0.01703
1540.15385,0.01274
1538.66406,0.00848
1537.17427,0.00568
1535.68448,0.00558
1534.19470,0.00994
1532.70491,0.01143
1531.21512,0.01361
1529.72533,0.00558
1528.23554,0.01330
1526.74575,0.01326
1525.25597,0.01903
1523.76618,0.02081
1522.27639,0.01929
1520.78660,0.03469
1519.29681,0.03120
1517.80702,0.02886
1516.31724,0.03209
1514.82745,0.04180
1513.33766,0.04509
1511.84787,0.04839
1510.35808,0.05551
1508.86829,0.03795
1507.37850,0.03710
1505.88872,0.04094
1504.39893,0.04725
1502.90914,0.04514
1501.41935,0.04950
1499.92956,0.05388
1498.43977,0.07052
1496.94999,0.05159
1495.46020,0.07339
1493.97041,0.07453
1492.48062,0.08370
1490.99083,0.10268
1489.50104,0.10900
1488.01125,0.10567
1486.52147,0.10237
1485.03168,0.11566
1483.54189,0.11985
1482.05210,0.15833
1480.56231,0.16167
1479.07252,0.18551
1477.58274,0.19380
1476.09295,0.18321
1474.60316,0.17419
1473.11337,0.18210
1471.62358,0.19360
1470.13379,0.20067
1468.64401,0.21555
1467.15422,0.23246
1465.66443,0.23170
1464.17464,0.23096
1462.68485,0.27575
1461.19506,0.30943
1459.70527,0.32912
1458.21549,0.39956
1456.72570,0.42641
1455.23591,0.46197
1453.74612,0.52892
1452.25633,0.57320
1450.76654,0.60215
1449.27676,0.61177
1447.78697,0.62052
1446.29718,0.64509
1444.80739,0.61374
1443.31760,0.58240
1441.82781,0.53274
1440.33802,0.50201
1438.84824,0.44127
1437.35845,0.40481
1435.86866,0.41219
1434.37887,0.45163
1432.88908,0.46061
1431.39929,0.53147
1429.90951,0.57454
1428.41972,0.62831
1426.92993,0.70635
1425.44014,0.75550
1423.95035,0.76829
1422.46056,0.78111
1420.97078,0.81965
1419.48099,0.87222
1417.99120,0.90480
1416.50141,0.90314
1415.01162,0.84766
1413.52183,0.79266
1412.03204,0.73946
1410.54226,0.68739
1409.05247,0.62778
1407.56268,0.60045
1406.07289,0.52754
1404.58310,0.50583
1403.09331,0.48413
1401.60353,0.42686
1400.11374,0.37874
1398.62395,0.31062
1397.13416,0.29013
1395.64437,0.25965
1394.15458,0.22163
1392.66479,0.17096
1391.17501,0.15256
1389.68522,0.12885
1388.19543,0.08892
1386.70564,0.07816
1385.21585,0.06742
1383.72606,0.06249
1382.23628,0.05224
1380.74649,0.03267
1379.25670,0.03204
1377.76691,0.02764
1376.27712,0.01259
1374.78733,0.00558
1373.29755,0.01493
1371.80776,0.01229
1370.31797,0.02279
1368.82818,0.02064
1367.33839,0.01852
1365.84860,0.01664
1364.35881,0.01612
1362.86903,0.03475
1361.37924,0.04006
1359.88945,0.06585
1358.39966,0.08567
1356.90987,0.12553
1355.42008,0.16207
1353.93030,0.21978
1352.44051,0.23846
1350.95072,0.25717
1349.46093,0.33608
1347.97114,0.41211
1346.48135,0.48084
1344.99156,0.53200
1343.50178,0.58987
1342.01199,0.65043
1340.52220,0.70011
1339.03241,0.77295
1337.54262,0.80911
1336.05283,0.82171
1334.56305,0.83433
1333.07326,0.87411
1331.58347,0.84051
1330.09368,0.83207
1328.60389,0.84812
1327.11410,0.84173
1325.62432,0.77151
1324.13453,0.75159
1322.64474,0.72035
1321.15495,0.70648
1319.66516,0.68030
1318.17537,0.65413
1316.68558,0.57849
1315.19580,0.56427
1313.70601,0.50380
1312.21622,0.47562
1310.72643,0.44011
1309.23664,0.39729
1307.74685,0.37652
1306.25707,0.35488
1304.76728,0.33526
1303.27749,0.31567
1301.78770,0.29053
1300.29791,0.25586
1298.80812,0.21120
1297.31834,0.18124
1295.82855,0.15309
1294.33876,0.12029
1292.84897,0.10976
1291.35918,0.08612
1289.86939,0.08787
1288.37960,0.08964
1286.88982,0.07409
1285.40003,0.08703
1283.91024,0.04928
1282.42045,0.05159
1280.93066,0.04213
1279.44087,0.05138
1277.95109,0.04531
1276.46130,0.03526
1274.97151,0.03690
1273.48172,0.03858
1271.99193,0.01613
1270.50214,0.02352
1269.01235,0.02782
1267.52257,0.02280
1266.03278,0.01869
1264.54299,0.01839
1263.05320,0.02545
1261.56341,0.02386
1260.07362,0.02229
1258.58384,0.02854
1257.09405,0.02257
1255.60426,0.01462
1254.11447,0.00558
1252.62468,0.01739
1251.13489,0.00654
1249.64511,0.01786
1248.15532,0.00963
1246.66553,0.01455
1245.17574,0.01948
1243.68595,0.01243
1242.19616,0.01052
1240.70637,0.01331
1239.21659,0.02012
1237.72680,0.01316
1236.23701,0.01223
1234.74722,0.01466
1233.25743,0.01011
1231.76764,0.00558
1230.27786,0.01875
1228.78807,0.01994
1227.29828,0.01047
1225.80849,0.01793
1224.31870,0.02474
1222.82891,0.01645
1221.33912,0.00707
1219.84934,0.01162
1218.35955,0.01620
1216.86976,0.02780
1215.37997,0.03920
1213.89018,0.05597
1212.40039,0.04317
1210.91061,0.06288
1209.42082,0.05947
1207.93103,0.06231
1206.44124,0.06518
1204.95145,0.06051
1203.46166,0.05742
1201.97188,0.06035
1200.48209,0.04930
1198.99230,0.04383
1197.50251,0.04550
1196.01272,0.04586
1194.52293,0.03946
1193.03314,0.03308
1191.54336,0.03351
1190.05357,0.02039
1188.56378,0.03310
1187.07399,0.02426
1185.58420,0.01522
1184.09441,0.02266
1182.60463,0.01411
1181.11484,0.00558
1179.62505,0.01686
1178.13526,0.02059
1176.64547,0.01990
1175.15568,0.01190
1173.66589,0.01170
1172.17611,0.02265
1170.68632,0.01861
1169.19653,0.01458
1167.70674,0.02627
1166.21695,0.02953
1164.72716,0.03926
1163.23738,0.03855
1161.74759,0.02319
1160.25780,0.04011
1158.76801,0.04504
1157.27822,0.04999
1155.78843,0.06453
1154.29865,0.07732
1152.80886,0.07700
1151.31907,0.10363
1149.82928,0.11804
1148.33949,0.14048
1146.84970,0.14760
1145.35991,0.15474
1143.87013,0.15389
1142.38034,0.16909
1140.89055,0.14982
1139.40076,0.16929
1137.91097,0.20013
1136.42118,0.20474
1134.93140,0.20971
1133.44161,0.21470
1131.95182,0.20736
1130.46203,0.22897
1128.97224,0.24949
1127.48245,0.24734
1125.99266,0.26190
1124.50288,0.25157
1123.01309,0.25450
1121.52330,0.25745
1120.03351,0.26454
1118.54372,0.26787
1117.05393,0.26455
1115.56415,0.22455
1114.07436,0.24018
1112.58457,0.25540
1111.09478,0.27064
1109.60499,0.25052
1108.11520,0.24601
1106.62542,0.23862
1105.13563,0.22214
1103.64584,0.23060
1102.15605,0.21572
1100.66626,0.21521
1099.17647,0.21473
1097.68668,0.19970
1096.19690,0.21050
1094.70711,0.22176
1093.21732,0.21570
1091.72753,0.21122
1090.23774,0.20920
1088.74795,0.20722
1087.25817,0.17588
1085.76838,0.17483
1084.27859,0.17291
1082.78880,0.16968
1081.29901,0.16113
1079.80922,0.18064
1078.31943,0.17803
1076.82965,0.17545
1075.33986,0.17145
1073.85007,0.18348
1072.36028,0.19510
1070.87049,0.20228
1069.38070,0.22173
1067.89092,0.24053
1066.40113,0.25936
1064.91134,0.31825
1063.42155,0.38985
1061.93176,0.46992
1060.44197,0.55336
1058.95219,0.62992
1057.46240,0.66735
1055.97261,0.70480
1054.48282,0.77564
1052.99303,0.82605
1051.50324,0.81685
1050.01345,0.84772
1048.52367,0.84147
1047.03388,0.82923
1045.54409,0.81701
1044.05430,0.80570
1042.56451,0.75794
1041.07472,0.66615
1039.58494,0.63667
1038.09515,0.59387
1036.60536,0.56411
1035.11557,0.53437
1033.62578,0.46049
1032.13599,0.42846
1030.64620,0.36353
1029.15642,0.29728
1027.66663,0.27289
1026.17684,0.24851
1024.68705,0.21193
1023.19726,0.19939
1021.70747,0.17019
1020.21769,0.14969
1018.72790,0.12721
1017.23811,0.11422
1015.74832,0.10124
1014.25853,0.08283
1012.76874,0.06512
1011.27896,0.07680
1009.78917,0.05780
1008.29938,0.05461
1006.80959,0.05201
1005.31980,0.04943
1003.83001,0.01917
1002.34022,0.00830
1000.85044,0.01813
999.36065,0.03311
997.87086,0.04288
996.38107,0.05267
994.89128,0.06305
993.40149,0.06566
991.91171,0.08520
990.42192,0.08474
988.93213,0.09810
987.44234,0.09657
985.95255,0.09507
984.46276,0.10383
982.97297,0.09748
981.48319,0.07870
979.99340,0.05994
978.50361,0.05077
977.01382,0.04162
975.52403,0.03806
974.03424,0.02629
972.54446,0.01587
971.05467,0.01794
969.56488,0.00557
968.07509,0.01241
966.58530,0.01927
965.09551,0.00558
963.60573,0.02013
962.11594,0.00645
960.62615,0.00770
959.13636,0.00831
957.64657,0.00894
956.15678,0.02228
954.66699,0.03608
953.17721,0.03389
951.68742,0.03439
950.19763,0.03758
948.70784,0.04080
947.21805,0.04915
945.72826,0.05931
944.23848,0.07639
942.74869,0.09728
941.25890,0.12174
939.76911,0.13567
938.27932,0.14961
936.78953,0.18349
935.29974,0.18558
933.80996,0.19704
932.32017,0.22053
930.83038,0.22292
929.34059,0.22532
927.85080,0.23888
926.36101,0.25423
924.87123,0.28229
923.38144,0.33996
921.89165,0.36384
920.40186,0.38774
918.91207,0.46506
917.42228,0.58689
915.93250,0.70719
914.44271,0.91717
912.95292,1.03306
911.46313,1.14898
909.97334,1.40886
908.48355,1.61137
906.99376,1.72535
905.50398,1.81890
904.01419,1.85685
902.52440,1.89482
901.03461,2.00000
899.54482,1.95193
898.05503,1.82801
896.56525,1.60179
895.07546,1.48371
893.58567,1.36565
892.09588,1.11836
890.60609,0.87510
889.11630,0.65834
887.62651,0.49165
886.13673,0.42265
884.64694,0.35368
883.15715,0.24490
881.66736,0.16129
880.17757,0.12175
878.68778,0.10681
877.19800,0.09190
875.70821,0.06221
874.21842,0.05747
872.72863,0.02917
871.23884,0.02358
869.74905,0.01457
868.25927,0.00558
866.76948,0.02397
865.27969,0.02881
863.78990,0.02834
862.30011,0.02455
860.81032,0.03347
859.32053,0.04241
857.83075,0.04959
856.34096,0.06526
854.85117,0.07160
853.36138,0.08775
851.87159,0.09892
850.38180,0.11011
848.89202,0.11655
847.40223,0.13123
845.91244,0.16597
844.42265,0.16613
842.93286,0.16632
841.44307,0.17220
839.95329,0.18856
838.46350,0.19249
836.97371,0.19510
835.48392,0.19262
833.99413,0.19017
832.50434,0.19307
831.01455,0.19333
829.52477,0.17782
828.03498,0.13653
826.54519,0.13441
825.05540,0.13232
823.56561,0.12735
822.07582,0.10506
820.58604,0.08257
819.09625,0.08391
817.60646,0.08527
816.11667,0.09154
814.62688,0.09184
813.13709,0.08815
811.64730,0.09939
810.15752,0.08840
808.66773,0.07745
807.17794,0.09676
805.68815,0.10787
804.19836,0.11523
802.70857,0.12316
801.21879,0.13111
799.72900,0.10316
798.23921,0.10037
796.74942,0.09894
795.25963,0.09542
793.76984,0.09193
792.28006,0.09946
790.79027,0.10858
789.30048,0.10749
787.81069,0.14112
786.32090,0.15498
784.83111,0.16887
783.34132,0.19501
781.85154,0.23853
780.36175,0.26850
778.87196,0.28047
777.38217,0.29247
775.89238,0.31895
774.40259,0.32098
772.91281,0.28900
771.42302,0.27161
769.93323,0.25424
768.44344,0.22367
766.95365,0.20646
765.46386,0.16592
763.97407,0.14253
762.48429,0.13073
760.99450,0.11896
759.50471,0.09564
758.01492,0.08302
756.52513,0.08600
755.03534,0.07287
753.54556,0.05976
752.05577,0.05770
750.56598,0.04475
749.07619,0.03049
747.58640,0.03327
746.09661,0.03608
744.60683,0.02946
743.11704,0.02196
741.62725,0.01894
740.13746,0.02107
738.64767,0.02321
737.15788,0.00558
735.66809,0.01612
734.17831,0.01112
732.68852,0.00925
731.19873,0.00741
729.70894,0.02228
728.21915,0.00558
726.72936,0.02241
725.23958,0.00701
723.74979,0.00876
722.26000,0.01054
720.77021,0.00855
719.28042,0.00504
717.79063,0.00644
716.30084,0.00953
714.81106,0.01264
713.32127,0.00544
711.83148,0.01093
710.34169,0.01512
708.85190,0.01844
707.36211,0.02178
705.87233,0.02692
704.38254,0.02809
702.89275,0.03751
701.40296,0.03571
699.91317,0.03394
698.42338,0.05567
696.93360,0.06073
695.44381,0.09273
693.95402,0.09372
692.46423,0.09474
690.97444,0.09745
689.48465,0.12910
687.99486,0.14831
686.50508,0.15643
685.01529,0.16457
683.52550,0.20477
682.03571,0.21851
680.54592,0.23495
679.05613,0.23674
677.56635,0.23854
676.07656,0.24437
674.58677,0.21886
673.09698,0.21428
671.60719,0.20116
670.11740,0.18806
668.62761,0.15575
667.13783,0.13146
665.64804,0.12177
664.15825,0.11211
662.66846,0.10947
661.17867,0.09662
659.68888,0.06623
658.19910,0.06021
656.70931,0.05422
655.21952,0.03279
653.72973,0.02473
652.23994,0.02738
650.75015,0.02504
649.26037,0.02272
647.77058,0.01743
646.28079,0.02350
644.79100,0.03760
643.30121,0.03471
641.81142,0.03185
640.32163,0.03023
638.83185,0.01817
637.34206,0.01882
635.85227,0.01638
634.36248,0.01397
632.87269,0.01513
631.38290,0.00764
629.89312,0.00775
628.40333,0.00665
626.91354,0.00558
625.42375,0.01893
623.93396,0.01407
622.44417,0.02614
620.95438,0.03823
619.46460,0.04011
617.97481,0.05202
616.48502,0.07286
614.99523,0.08337
613.50544,0.09391
612.01565,0.12038
610.52587,0.15199
609.03608,0.18607
607.54629,0.19091
606.05650,0.19578
604.56671,0.26397
603.07692,0.30815
601.58714,0.32644
600.09735,0.34475
598.60756,0.35697
597.11777,0.38455
595.62798,0.39437
594.13819,0.38474
592.64840,0.37514
591.15862,0.32696
589.66883,0.28570
588.17904,0.24091
586.68925,0.22250
585.19946,0.20411
583.70967,0.15093
582.21989,0.14405
580.73010,0.12062
579.24031,0.09721
577.75052,0.06125
576.26073,0.06714
574.77094,0.04725
573.28115,0.05096
571.79137,0.05469
570.30158,0.04911
568.81179,0.05334
567.32200,0.05892
565.83221,0.06453
564.34242,0.08217
562.85264,0.08872
561.36285,0.08639
559.87306,0.10710
558.38327,0.12784
556.89348,0.13181
555.40369,0.13513
553.91391,0.13214
552.42412,0.12917
550.93433,0.11588
549.44454,0.12352
547.95475,0.15210
546.46496,0.15701
544.97517,0.16194
543.48539,0.19036
541.99560,0.21881
540.50581,0.23683
539.01602,0.25487
537.52623,0.30140
536.03644,0.33551
534.54666,0.35094
533.05687,0.37386
531.56708,0.39680
530.07729,0.45546
528.58750,0.51994
527.09771,0.54695
525.60792,0.57398
524.11814,0.67590
522.62835,0.72378
521.13856,0.77325
519.64877,0.78502
518.15898,0.79682
516.66919,0.86215
515.17941,0.89413
513.68962,0.88587
512.19983,0.87763
510.71004,0.79845
509.22025,0.76111
507.73046,0.64682
506.24068,0.60675
504.75089,0.56671
503.26110,0.48252
501.77131,0.39325
500.28152,0.34704
498.79173,0.30085
497.30194,0.22655
495.81216,0.19454
494.32237,0.17390
492.83258,0.15328
491.34279,0.12446
489.85300,0.09209
488.36321,0.10914
486.87343,0.10663
485.38364,0.10415
483.89385,0.08456
482.40406,0.07857
480.91427,0.08060
479.42448,0.08266
477.93469,0.12123
476.44491,0.13891
474.95512,0.15227
473.46533,0.16566
471.97554,0.17473
470.48575,0.18716
468.99596,0.17381
467.50618,0.15837
466.01639,0.14295
464.52660,0.10097
463.03681,0.09706
461.54702,0.08405
460.05723,0.07106
458.56745,0.05676
457.07766,0.01044
455.58787,0.01421
454.09808,0.01800
452.60829,0.01692
451.11850,0.00874
449.62871,0.00715
448.13893,0.00558
446.64914,0.02416
445.15935,0.03121
443.66956,0.00557
442.17977,0.01422
440.68998,0.02289
439.20020,0.04359
437.71041,0.04563
436.22062,0.03758
434.73083,0.02954
433.24104,0.03054
431.75125,0.04135
430.26146,0.03951
428.77168,0.03768
427.28189,0.02921
425.79210,0.03633
424.30231,0.04036
422.81252,0.04441
421.32273,0.03981
419.83295,0.03502
418.34316,0.03324
416.85337,0.03149
415.36358,0.01609
413.87379,0.02784
412.38400,0.02005
410.89422,0.01227
409.40443,0.02699
407.91464,0.02438
406.42485,0.03803
404.93506,0.02891
403.44527,0.01980
401.95548,0.03508
400.46570,0.02413
398.97591,0.02511
397.48612,0.02611
395.99633,0.03280
394.50654,0.03507
393.01675,0.03859
391.52697,0.04213
390.03718,0.02823
388.54739,0.00990
387.05760,0.00773
385.56781,0.00558
384.07802,0.01867
382.58824,0.02579
381.09845,0.02547
379.60866,0.02518
378.11887,0.01924
376.62908,0.02199
375.13929,0.01699
373.64950,0.01200
372.15972,0.01795
370.66993,0.01501
369.18014,0.01466
367.69035,0.01433
366.20056,0.02103
364.71077,0.01485
363.22099,0.01860
361.73120,0.02236
360.24141,0.00558
358.75162,0.01345
357.26183,0.01200
355.77204,0.01058
354.28225,0.01451
352.79247,0.04450
351.30268,0.04559
349.81289,0.04671
348.32310,0.05074
346.83331,0.02342
345.34352,0.02094
343.85374,0.01847
342.36395,0.03572
340.87416,0.05188
339.38437,0.03981
337.89458,0.02776
336.40479,0.01819
334.91501,0.00574
333.42522,0.00689
331.93543,0.00806
330.44564,0.02994
328.95585,0.02738
327.46606,0.01661
325.97627,0.00586
324.48649,0.02398
322.99670,0.06460
321.50691,0.07221
320.01712,0.07984
318.52733,0.07293
317.03754,0.02977
315.54776,0.03925
314.05797,0.04875
312.56818,0.03525
311.07839,0.05804
309.58860,0.05694
308.09881,0.05585
306.60902,0.06269
305.11924,0.05309
303.62945,0.03339
302.13966,0.01372
300.64987,0.03911
299.16008,0.00558
