1778.52000,0.01461
1777.03021,0.00188
1775.54042,0.01592
1774.05063,0.01384
1772.56085,0.01708
1771.07106,0.02059
1769.58127,0.01906
1768.09148,0.01779
1766.60169,0.00957
1765.11190,0.01413
1763.62212,0.01848
1762.13233,0.02358
1760.64254,0.01930
1759.15275,0.01673
1757.66296,0.01612
1756.17317,0.02275
1754.68339,0.01592
1753.19360,0.01585
1751.70381,0.01533
1750.21402,0.01917
1748.72423,0.02303
1747.23444,0.01656
1745.74465,0.01541
1744.25487,0.01886
1742.76508,0.01390
1741.27529,0.02372
1739.78550,0.01766
1738.29571,0.02055
1736.80592,0.02417
1735.31614,0.02108
1733.82635,0.01969
1732.33656,0.01665
1730.84677,0.01965
1729.35698,0.01496
1727.86719,0.01415
1726.37740,0.02300
1724.88762,0.01598
1723.39783,0.01837
1721.90804,0.00923
1720.41825,0.01071
1718.92846,0.00691
1717.43867,0.01807
1715.94889,0.01528
1714.45910,0.01661
1712.96931,0.01002
1711.47952,0.01258
1709.98973,0.01901
1708.49994,0.01824
1707.01016,0.01292
1705.52037,0.00762
1704.03058,0.01319
1702.54079,0.01131
1701.05100,0.01186
1699.56121,0.00690
1698.07142,0.01666
1696.58164,0.01270
1695.09185,0.00685
1693.60206,0.01137
1692.11227,0.00773
1690.62248,0.01594
1689.13269,0.01477
1687.64291,0.01194
1686.15312,0.02214
1684.66333,0.01333
1683.17354,0.02623
1681.68375,0.02301
1680.19396,0.01789
1678.70417,0.02098
1677.21439,0.03783
1675.72460,0.02266
1674.23481,0.02727
1672.74502,0.03334
1671.25523,0.03342
1669.76544,0.04171
1668.27566,0.04690
1666.78587,0.04223
1665.29608,0.04746
1663.80629,0.05224
1662.31650,0.04884
1660.82671,0.05198
1659.33693,0.06285
1657.84714,0.06217
1656.35735,0.06731
1654.86756,0.05343
1653.37777,0.06054
1651.88798,0.06791
1650.39819,0.07097
1648.90841,0.06610
1647.41862,0.08222
1645.92883,0.07379
1644.43904,0.06538
1642.94925,0.06928
1641.45946,0.07248
1639.96968,0.07667
1638.47989,0.07148
1636.99010,0.08198
1635.50031,0.08263
1634.01052,0.07125
1632.52073,0.07556
1631.03094,0.08182
1629.54116,0.08473
1628.05137,0.08694
1626.56158,0.09037
1625.07179,0.09070
1623.58200,0.09587
1622.09221,0.07867
1620.60243,0.08629
1619.11264,0.09178
1617.62285,0.08379
1616.13306,0.07053
1614.64327,0.07561
1613.15348,0.10070
1611.66370,0.08293
1610.17391,0.08422
1608.68412,0.07806
1607.19433,0.08422
1605.70454,0.08726
1604.21475,0.08865
1602.72496,0.09005
1601.23518,0.08353
1599.74539,0.07873
1598.25560,0.08213
1596.76581,0.08628
1595.27602,0.10033
1593.78623,0.08502
1592.29645,0.08659
1590.80666,0.08674
1589.31687,0.07656
1587.82708,0.08302
1586.33729,0.07240
1584.84750,0.08517
1583.35771,0.08231
1581.86793,0.08260
1580.37814,0.10075
1578.88835,0.07941
1577.39856,0.08675
1575.90877,0.08714
1574.41898,0.06057
1572.92920,0.07040
1571.43941,0.05279
1569.94962,0.06062
1568.45983,0.06847
1566.97004,0.05335
1565.48025,0.04258
1563.99047,0.03472
1562.50068,0.02183
1561.01089,0.02824
1559.52110,0.03105
1558.03131,0.02281
1556.54152,0.02037
1555.05173,0.02350
1553.56195,0.02544
1552.07216,0.02934
1550.58237,0.01736
1549.09258,0.00926
1547.60279,0.02768
1546.11300,0.01674
1544.62322,0.01449
1543.13343,0.01395
1541.64364,0.02115
1540.15385,0.01150
1538.66406,0.00188
1537.17427,0.02149
1535.68448,0.01631
1534.19470,0.02392
1532.70491,0.03179
1531.21512,0.03342
1529.72533,0.03508
1528.23554,0.02400
1526.74575,0.04208
1525.25597,0.03586
1523.76618,0.03545
1522.27639,0.03818
1520.78660,0.03757
1519.29681,0.03916
1517.80702,0.05618
1516.31724,0.04047
1514.82745,0.05537
1513.33766,0.04982
1511.84787,0.04429
1510.35808,0.04577
1508.86829,0.04270
1507.37850,0.04737
1505.88872,0.05567
1504.39893,0.05315
1502.90914,0.04728
1501.41935,0.06818
1499.92956,0.06501
1498.43977,0.07656
1496.94999,0.06236
1495.46020,0.07853
1493.97041,0.09087
1492.48062,0.09192
1490.99083,0.10527
1489.50104,0.11431
1488.01125,0.11458
1486.52147,0.11488
1485.03168,0.12905
1483.54189,0.15360
1482.05210,0.14734
1480.56231,0.16833
1479.07252,0.19247
1477.58274,0.19520
1476.09295,0.20156
1474.60316,0.20265
1473.11337,0.22231
1471.62358,0.21718
1470.13379,0.20051
1468.64401,0.21880
1467.15422,0.22386
1465.66443,0.23532
1464.17464,0.24681
1462.68485,0.29386
1461.19506,0.32937
1459.70527,0.37140
1458.21549,0.41828
1456.72570,0.45506
1455.23591,0.50391
1453.74612,0.58507
1452.25633,0.63011
1450.76654,0.65494
1449.27676,0.67932
1447.78697,0.66879
1446.29718,0.65105
1444.80739,0.64298
1443.31760,0.63492
1441.82781,0.59076
1440.33802,0.56132
1438.84824,0.49504
1437.35845,0.45528
1435.86866,0.44494
1434.37887,0.45823
1432.88908,0.49996
1431.39929,0.53570
1429.90951,0.63024
1428.41972,0.66820
1426.92993,0.77700
1425.44014,0.82584
1423.95035,0.83942
1422.46056,0.85302
1420.97078,0.88049
1419.48099,0.93183
1417.99120,0.94273
1416.50141,0.92812
1415.01162,0.90992
1413.52183,0.87391
1412.03204,0.82155
1410.54226,0.76030
1409.05247,0.68245
1407.56268,0.60823
1406.07289,0.54802
1404.58310,0.51866
1403.09331,0.48932
1401.60353,0.42580
1400.11374,0.39145
1398.62395,0.35713
1397.13416,0.30862
1395.64437,0.25555
1394.15458,0.24274
1392.66479,0.19285
1391.17501,0.17214
1389.68522,0.13145
1388.19543,0.10886
1386.70564,0.09098
1385.21585,0.07313
1383.72606,0.04218
1382.23628,0.03823
1380.74649,0.02972
1379.25670,0.02076
1377.76691,0.02483
1376.27712,0.01013
1374.78733,0.00100
1373.29755,0.00146
1371.80776,0.00188
1370.31797,0.02007
1368.82818,0.03828
1367.33839,0.05651
1365.84860,0.07477
1364.35881,0.09305
1362.86903,0.11136
1361.37924,0.12969
1359.88945,0.14804
1358.39966,0.16642
1356.90987,0.18482
1355.42008,0.20324
1353.93030,0.22169
1352.44051,0.24457
1350.95072,0.26748
1349.46093,0.33402
1347.97114,0.42828
1346.48135,0.52305
1344.99156,0.58846
1343.50178,0.65677
1342.01199,0.69476
1340.52220,0.73735
1339.03241,0.79827
1337.54262,0.88210
1336.05283,0.89344
1334.56305,0.90481
1333.07326,0.95161
1331.58347,0.95628
1330.09368,0.91882
1328.60389,0.90378
1327.11410,0.92177
1325.62432,0.88100
1324.13453,0.86459
1322.64474,0.83303
1321.15495,0.78751
1319.66516,0.75588
1318.17537,0.72426
1316.68558,0.65473
1315.19580,0.60931
1313.70601,0.54151
1312.21622,0.50217
1310.72643,0.46862
1309.23664,0.43607
1307.74685,0.41582
1306.25707,0.39030
1304.76728,0.36480
1303.27749,0.33932
1301.78770,0.32230
1300.29791,0.26483
1298.80812,0.21293
1297.31834,0.19622
1295.82855,0.14942
1294.33876,0.12867
1292.84897,0.10818
1291.35918,0.08482
1289.86939,0.08581
1288.37960,0.08683
1286.88982,0.07583
1285.40003,0.07713
1283.91024,0.05871
1282.42045,0.03959
1280.93066,0.05446
1279.44087,0.04502
1277.95109,0.04090
1276.46130,0.03705
1274.97151,0.03322
1273.48172,0.02942
1271.99193,0.02323
1270.50214,0.01995
1269.01235,0.02778
1267.52257,0.02215
1266.03278,0.02232
1264.54299,0.01793
1263.05320,0.00177
1261.56341,0.00177
1260.07362,0.00179
1258.58384,0.01075
1257.09405,0.01323
1255.60426,0.00392
1254.11447,0.00187
1252.62468,0.01623
1251.13489,0.01205
1249.64511,0.00188
1248.15532,0.00814
1246.66553,0.00539
1245.17574,0.00267
1243.68595,0.00939
1242.19616,0.01589
1240.70637,0.02844
1239.21659,0.02921
1237.72680,0.01097
1236.23701,0.00119
1234.74722,0.01259
1233.25743,0.01245
1231.76764,0.01233
1230.27786,0.00188
1228.78807,0.00395
1227.29828,0.01471
1225.80849,0.02646
1224.31870,0.00716
1222.82891,0.01246
1221.33912,0.00404
1219.84934,0.01565
1218.35955,0.02727
1216.86976,0.03844
1215.37997,0.03711
1213.89018,0.03604
1212.40039,0.05089
1210.91061,0.05975
1209.42082,0.05249
1207.93103,0.05416
1206.44124,0.05586
1204.95145,0.04626
1203.46166,0.05018
1201.97188,0.05339
1200.48209,0.05711
1198.99230,0.05773
1197.50251,0.05138
1196.01272,0.02771
1194.52293,0.03164
1193.03314,0.03560
1191.54336,0.02116
1190.05357,0.02215
1188.56378,0.01691
1187.07399,0.03192
1185.58420,0.01396
1184.09441,0.00397
1182.60463,0.00291
1181.11484,0.00188
1179.62505,0.00217
1178.13526,0.01525
1176.64547,0.01776
1175.15568,0.02294
1173.66589,0.00188
1172.17611,0.01215
1170.68632,0.01292
1169.19653,0.01372
1167.70674,0.01370
1166.21695,0.02574
1164.72716,0.02023
1163.23738,0.03064
1161.74759,0.04516
1160.25780,0.04526
1158.76801,0.05405
1157.27822,0.06287
1155.78843,0.08496
1154.29865,0.09719
1152.80886,0.08657
1151.31907,0.10776
1149.82928,0.10730
1148.33949,0.13770
1146.84970,0.14837
1145.35991,0.15906
1143.87013,0.15315
1142.38034,0.16244
1140.89055,0.15490
1139.40076,0.15798
1137.91097,0.17794
1136.42118,0.20202
1134.93140,0.20577
1133.44161,0.20955
1131.95182,0.22454
1130.46203,0.22463
1128.97224,0.25726
1127.48245,0.26101
1125.99266,0.26069
1124.50288,0.26304
1123.01309,0.27252
1121.52330,0.28202
1120.03351,0.25192
1118.54372,0.24714
1117.05393,0.24889
1115.56415,0.26053
1114.07436,0.26160
1112.58457,0.25968
1111.09478,0.25779
1109.60499,0.24592
1108.11520,0.25817
1106.62542,0.23214
1105.13563,0.22805
1103.64584,0.22302
1102.15605,0.22934
1100.66626,0.22484
1099.17647,0.22036
1097.68668,0.19833
1096.19690,0.21124
1094.70711,0.20564
1093.21732,0.20704
1091.72753,0.19232
1090.23774,0.18209
1088.74795,0.17187
1087.25817,0.18084
1085.76838,0.15779
1084.27859,0.16872
1082.78880,0.16620
1081.29901,0.14056
1079.80922,0.16000
1078.31943,0.16670
1076.82965,0.17342
1075.33986,0.18185
1073.85007,0.19055
1072.36028,0.21083
1070.87049,0.20752
1069.38070,0.20882
1067.89092,0.21641
1066.40113,0.22401
1064.91134,0.28320
1063.42155,0.36264
1061.93176,0.44717
1060.44197,0.54472
1058.95219,0.62544
1057.46240,0.67173
1055.97261,0.71805
1054.48282,0.79956
1052.99303,0.82545
1051.50324,0.85281
1050.01345,0.85562
1048.52367,0.88495
1047.03388,0.88636
1045.54409,0.88780
1044.05430,0.82855
1042.56451,0.72789
1041.07472,0.68507
1039.58494,0.63457
1038.09515,0.59180
1036.60536,0.55651
1035.11557,0.52126
1033.62578,0.44700
1032.13599,0.41564
1030.64620,0.35444
1029.15642,0.29567
1027.66663,0.27667
1026.17684,0.25770
1024.68705,0.23200
1023.19726,0.17718
1021.70747,0.14310
1020.21769,0.12880
1018.72790,0.11741
1017.23811,0.10869
1015.74832,0.10000
1014.25853,0.10531
1012.76874,0.08606
1011.27896,0.07479
1009.78917,0.06138
1008.29938,0.06220
1006.80959,0.05389
1005.31980,0.04560
1003.83001,0.02722
1002.34022,0.00188
1000.85044,0.01520
999.36065,0.02203
997.87086,0.02829
996.38107,0.03457
994.89128,0.04461
993.40149,0.05274
991.91171,0.07511
990.42192,0.07944
988.93213,0.10065
987.44234,0.09635
985.95255,0.09208
984.46276,0.09746
982.97297,0.09155
981.48319,0.07891
979.99340,0.05931
978.50361,0.05179
977.01382,0.04428
975.52403,0.02957
974.03424,0.02211
972.54446,0.01372
971.05467,0.00558
969.56488,0.00301
968.07509,0.00435
966.58530,0.00572
965.09551,0.00554
963.60573,0.00949
962.11594,0.00502
960.62615,0.00901
959.13636,0.00543
957.64657,0.00188
956.15678,0.00984
954.66699,0.02216
953.17721,0.02872
951.68742,0.02688
950.19763,0.03999
948.70784,0.05312
947.21805,0.07158
945.72826,0.06405
944.23848,0.09581
942.74869,0.11361
941.25890,0.11940
939.76911,0.12196
938.27932,0.12454
936.78953,0.16244
935.29974,0.17579
933.80996,0.21036
932.32017,0.23315
930.83038,0.23922
929.34059,0.24532
927.85080,0.24819
926.36101,0.26794
924.87123,0.29832
923.38144,0.32294
921.89165,0.35794
920.40186,0.39296
918.91207,0.45499
917.42228,0.60112
915.93250,0.73378
914.44271,0.93849
912.95292,1.05084
911.46313,1.16321
909.97334,1.39666
908.48355,1.61520
906.99376,1.82075
905.50398,1.92298
904.01419,1.94164
902.52440,1.96033
901.03461,2.00000
899.54482,1.94622
898.05503,1.82213
896.56525,1.65614
895.07546,1.52800
893.58567,1.39988
892.09588,1.11713
890.60609,0.89054
889.11630,0.70612
887.62651,0.48607
886.13673,0.41998
884.64694,0.35392
883.15715,0.26258
881.66736,0.17368
880.17757,0.12840
878.68778,0.11314
877.19800,0.09790
875.70821,0.06088
874.21842,0.04437
872.72863,0.03076
871.23884,0.01309
869.74905,0.00881
868.25927,0.00455
866.76948,0.01538
865.27969,0.01442
863.78990,0.00337
862.30011,0.00439
860.81032,0.02217
859.32053,0.03998
857.83075,0.04540
856.34096,0.05615
854.85117,0.07680
853.36138,0.09361
851.87159,0.09684
850.38180,0.10010
848.89202,0.10928
847.40223,0.14498
845.91244,0.13686
844.42265,0.14527
842.93286,0.15370
841.44307,0.17528
839.95329,0.18581
838.46350,0.20913
836.97371,0.19441
835.48392,0.19199
833.99413,0.18961
832.50434,0.20145
831.01455,0.16129
829.52477,0.17921
828.03498,0.13717
826.54519,0.12912
825.05540,0.12109
823.56561,0.12128
822.07582,0.10728
820.58604,0.10534
819.09625,0.10259
817.60646,0.09986
816.11667,0.09559
814.62688,0.10459
813.13709,0.10373
811.64730,0.09520
810.15752,0.10379
808.66773,0.11240
807.17794,0.11357
805.68815,0.11548
804.19836,0.09719
802.70857,0.11300
801.21879,0.12884
799.72900,0.13422
798.23921,0.10446
796.74942,0.09182
795.25963,0.09270
793.76984,0.09360
792.28006,0.10295
790.79027,0.11980
789.30048,0.14125
787.81069,0.16465
786.32090,0.16217
784.83111,0.15972
783.34132,0.19933
781.85154,0.23896
780.36175,0.26417
778.87196,0.28722
777.38217,0.31031
775.89238,0.33389
774.40259,0.33727
772.91281,0.31248
771.42302,0.30627
769.93323,0.30008
768.44344,0.26091
766.95365,0.19142
765.46386,0.16627
763.97407,0.15849
762.48429,0.14061
760.99450,0.12276
759.50471,0.10132
758.01492,0.08062
756.52513,0.07898
755.03534,0.06942
753.54556,0.05987
752.05577,0.06120
750.56598,0.05941
749.07619,0.04295
747.58640,0.04145
746.09661,0.03998
744.60683,0.03949
743.11704,0.02505
741.62725,0.02967
740.13746,0.01577
738.64767,0.00188
737.15788,0.00686
735.66809,0.01667
734.17831,0.00892
732.68852,0.00445
731.19873,0.00000
729.70894,0.00485
728.21915,0.00876
726.72936,0.00668
725.23958,0.01088
723.74979,0.01113
722.26000,0.01140
720.77021,0.00845
719.28042,0.02527
717.79063,0.00188
716.30084,0.00968
714.81106,0.01750
713.32127,0.02124
711.83148,0.02501
710.34169,0.03820
708.85190,0.03792
707.36211,0.03767
705.87233,0.02853
704.38254,0.03531
702.89275,0.05054
701.40296,0.05508
699.91317,0.05964
698.42338,0.04845
696.93360,0.07269
695.44381,0.09575
693.95402,0.10486
692.46423,0.11400
690.97444,0.13400
689.48465,0.14535
687.99486,0.16974
686.50508,0.19077
685.01529,0.21183
683.52550,0.23412
682.03571,0.24438
680.54592,0.27419
679.05613,0.27137
677.56635,0.26858
676.07656,0.25413
674.58677,0.24403
673.09698,0.23204
671.60719,0.21742
670.11740,0.20282
668.62761,0.17764
667.13783,0.15562
665.64804,0.14001
664.15825,0.12443
662.66846,0.11019
661.17867,0.08248
659.68888,0.06997
658.19910,0.06749
656.70931,0.06503
655.21952,0.05452
653.72973,0.04958
652.23994,0.04779
650.75015,0.03675
649.26037,0.02573
647.77058,0.03847
646.28079,0.04063
644.79100,0.05125
643.30121,0.03936
641.81142,0.02750
640.32163,0.04590
638.83185,0.04480
637.34206,0.03241
635.85227,0.02041
634.36248,0.00842
632.87269,0.00188
631.38290,0.00131
629.89312,0.01237
628.40333,0.01093
626.91354,0.00950
625.42375,0.00594
623.93396,0.02335
622.44417,0.01502
620.95438,0.00670
619.46460,0.02467
617.97481,0.03230
616.48502,0.07031
614.99523,0.07968
613.50544,0.08907
612.01565,0.11390
610.52587,0.14068
609.03608,0.17809
607.54629,0.20131
606.05650,0.22455
604.56671,0.27310
603.07692,0.31687
601.58714,0.34825
600.09735,0.37965
598.60756,0.41530
597.11777,0.45795
595.62798,0.46425
594.13819,0.45323
592.64840,0.44224
591.15862,0.38212
589.66883,0.33552
588.17904,0.29015
586.68925,0.24697
585.19946,0.20381
583.70967,0.15345
582.21989,0.11901
580.73010,0.09869
579.24031,0.07839
577.75052,0.05149
576.26073,0.05665
574.77094,0.04136
573.28115,0.04055
571.79137,0.03976
570.30158,0.03924
568.81179,0.05898
567.32200,0.06850
565.83221,0.07804
564.34242,0.08123
562.85264,0.10202
561.36285,0.12284
559.87306,0.12272
558.38327,0.12263
556.89348,0.12545
555.40369,0.14082
553.91391,0.15573
552.42412,0.17067
550.93433,0.16853
549.44454,0.16544
547.95475,0.18093
546.46496,0.18488
544.97517,0.18886
543.48539,0.21743
541.99560,0.24457
540.50581,0.25597
539.01602,0.26738
537.52623,0.32736
536.03644,0.35701
534.54666,0.38813
533.05687,0.41747
531.56708,0.44683
530.07729,0.51247
528.58750,0.55404
527.09771,0.58335
525.60792,0.61269
524.11814,0.71022
522.62835,0.75502
521.13856,0.82827
519.64877,0.84782
518.15898,0.86739
516.66919,0.90337
515.17941,0.88325
513.68962,0.89362
512.19983,0.90402
510.71004,0.80567
509.22025,0.77962
507.73046,0.74251
506.24068,0.68290
504.75089,0.62331
503.26110,0.54339
501.77131,0.40954
500.28152,0.36255
498.79173,0.31558
497.30194,0.23648
495.81216,0.19233
494.32237,0.17663
492.83258,0.16096
491.34279,0.12339
489.85300,0.10583
488.36321,0.08661
486.87343,0.07898
485.38364,0.07138
483.89385,0.09101
482.40406,0.09598
480.91427,0.09688
479.42448,0.09779
477.93469,0.10885
476.44491,0.14234
474.95512,0.15417
473.46533,0.16603
471.97554,0.16345
470.48575,0.17174
468.99596,0.18607
467.50618,0.17357
466.01639,0.16109
464.52660,0.11696
463.03681,0.08224
461.54702,0.06513
460.05723,0.04805
458.56745,0.01823
457.07766,0.02649
455.58787,0.01417
454.09808,0.00188
452.60829,0.00465
451.11850,0.00793
449.62871,0.01195
448.13893,0.01599
446.64914,0.02584
445.15935,0.01138
443.66956,0.01309
442.17977,0.01687
440.68998,0.02067
439.20020,0.02871
437.71041,0.03846
436.22062,0.04522
434.73083,0.05201
433.24104,0.02232
431.75125,0.01820
430.26146,0.02072
428.77168,0.02326
427.28189,0.01800
425.79210,0.03926
424.30231,0.03863
422.81252,0.03802
421.32273,0.03092
419.83295,0.03686
418.34316,0.03018
416.85337,0.02352
415.36358,0.01893
413.87379,0.03098
412.38400,0.01969
410.89422,0.00843
409.40443,0.00369
407.91464,0.02403
406.42485,0.03426
404.93506,0.04115
403.44527,0.04806
401.95548,0.02826
400.46570,0.03401
398.97591,0.02606
397.48612,0.01813
395.99633,0.01914
394.50654,0.03800
393.01675,0.02857
391.52697,0.01917
390.03718,0.01522
388.54739,0.01755
387.05760,0.01605
385.56781,0.01457
384.07802,0.01770
382.58824,0.00543
381.09845,0.00969
379.60866,0.01397
378.11887,0.02273
376.62908,0.00188
375.13929,0.00715
373.64950,0.01245
372.15972,0.00439
370.66993,0.03009
369.18014,0.02783
367.69035,0.02559
366.20056,0.01290
364.71077,0.01589
363.22099,0.01240
361.73120,0.00893
360.24141,0.02837
358.75162,0.03362
357.26183,0.03493
355.77204,0.03625
354.28225,0.03724
352.79247,0.02090
351.30268,0.04302
349.81289,0.06515
348.32310,0.04624
346.83331,0.04975
345.34352,0.03787
343.85374,0.02602
342.36395,0.02286
340.87416,0.04285
339.38437,0.03070
337.89458,0.01858
336.40479,0.00877
334.91501,0.01344
333.42522,0.00765
331.93543,0.00188
330.44564,0.01305
328.95585,0.02160
327.46606,0.02860
325.97627,0.03563
324.48649,0.02666
322.99670,0.06228
321.50691,0.06986
320.01712,0.07746
318.52733,0.09268
317.03754,0.09370
315.54776,0.09921
314.05797,0.10474
312.56818,0.09933
311.07839,0.09828
309.58860,0.08533
308.09881,0.07241
306.60902,0.04156
305.11924,0.02374
303.62945,0.01366
302.13966,0.00360
300.64987,0.00188
299.16008,0.00188
