1778.52000,0.00857
1777.03021,0.00428
1775.54042,0.00177
1774.05063,0.01001
1772.56085,0.01450
1771.07106,0.00538
1769.58127,0.01485
1768.09148,0.00230
1766.60169,0.00457
1765.11190,0.00542
1763.62212,0.00831
1762.13233,0.01210
1760.64254,0.01940
1759.15275,0.01222
1757.66296,0.01695
1756.17317,0.01388
1754.68339,0.00793
1753.19360,0.01216
1751.70381,0.01496
1750.21402,0.01256
1748.72423,0.01831
1747.23444,0.01538
1745.74465,0.00726
1744.25487,0.02102
1742.76508,0.02408
1741.27529,0.02745
1739.78550,0.02910
1738.29571,0.01918
1736.80592,0.01595
1735.31614,0.02145
1733.82635,0.02291
1732.33656,0.01134
1730.84677,0.01720
1729.35698,0.01033
1727.86719,0.01217
1726.37740,0.01811
1724.88762,0.01739
1723.39783,0.02367
1721.90804,0.01604
1720.41825,0.01220
1718.92846,0.00230
1717.43867,0.01508
1715.94889,0.01163
1714.45910,0.01459
1712.96931,0.00801
1711.47952,0.00840
1709.98973,0.01434
1708.49994,0.01536
1707.01016,0.01496
1705.52037,0.01459
1704.03058,0.02062
1702.54079,0.01913
1701.05100,0.01767
1699.56121,0.00230
1698.07142,0.01369
1696.58164,0.02307
1695.09185,0.02754
1693.60206,0.02508
1692.11227,0.02786
1690.62248,0.01993
1689.13269,0.02682
1687.64291,0.03055
1686.15312,0.03081
1684.66333,0.03110
1683.17354,0.02620
1681.68375,0.03176
1680.19396,0.02574
1678.70417,0.03512
1677.21439,0.05178
1675.72460,0.04322
1674.23481,0.03266
1672.74502,0.05403
1671.25523,0.05018
1669.76544,0.05536
1668.27566,0.05708
1666.78587,0.05505
1665.29608,0.06552
1663.80629,0.08007
1662.31650,0.08682
1660.82671,0.08227
1659.33693,0.09980
1657.84714,0.07181
1656.35735,0.07778
1654.86756,0.07797
1653.37777,0.08196
1651.88798,0.08133
1650.39819,0.07377
1648.90841,0.08944
1647.41862,0.07060
1645.92883,0.07878
1644.43904,0.08697
1642.94925,0.08707
1641.45946,0.07733
1639.96968,0.07777
1638.47989,0.10114
1636.99010,0.09496
1635.50031,0.09924
1634.01052,0.08265
1632.52073,0.07973
1631.03094,0.08756
1629.54116,0.09339
1628.05137,0.09721
1626.56158,0.09410
1625.07179,0.10116
1623.58200,0.10853
1622.09221,0.09881
1620.60243,0.09898
1619.11264,0.09773
1617.62285,0.09041
1616.13306,0.08514
1614.64327,0.07728
1613.15348,0.09556
1611.66370,0.09355
1610.17391,0.09912
1608.68412,0.09252
1607.19433,0.09088
1605.70454,0.09216
1604.21475,0.08853
1602.72496,0.08493
1601.23518,0.09528
1599.74539,0.09376
1598.25560,0.09487
1596.76581,0.09630
1595.27602,0.07861
1593.78623,0.08647
1592.29645,0.07810
1590.80666,0.07644
1589.31687,0.08959
1587.82708,0.08594
1586.33729,0.09044
1584.84750,0.08104
1583.35771,0.07659
1581.86793,0.09509
1580.37814,0.07996
1578.88835,0.08777
1577.39856,0.08168
1575.90877,0.06952
1574.41898,0.05854
1572.92920,0.06384
1571.43941,0.04508
1569.94962,0.04695
1568.45983,0.04883
1566.97004,0.04610
1565.48025,0.04514
1563.99047,0.04391
1562.50068,0.03400
1561.01089,0.05109
1559.52110,0.03601
1558.03131,0.02008
1556.54152,0.01723
1555.05173,0.02804
1553.56195,0.02756
1552.07216,0.01840
1550.58237,0.03392
1549.09258,0.02365
1547.60279,0.01601
1546.11300,0.00230
1544.62322,0.01246
1543.13343,0.00988
1541.64364,0.00731
1540.15385,0.00927
1538.66406,0.01126
1537.17427,0.03749
1535.68448,0.01530
1534.19470,0.01402
1532.70491,0.01654
1531.21512,0.02053
1529.72533,0.01178
1528.23554,0.01408
1526.74575,0.01785
1525.25597,0.03180
1523.76618,0.03592
1522.27639,0.02381
1520.78660,0.03696
1519.29681,0.03534
1517.80702,0.04100
1516.31724,0.03450
1514.82745,0.03412
1513.33766,0.03985
1511.84787,0.04560
1510.35808,0.06009
1508.86829,0.04500
1507.37850,0.04706
1505.88872,0.05204
1504.39893,0.06662
1502.90914,0.07165
1501.41935,0.08773
1499.92956,0.06409
1498.43977,0.07587
1496.94999,0.08970
1495.46020,0.08963
1493.97041,0.11076
1492.48062,0.12060
1490.99083,0.13569
1489.50104,0.14210
1488.01125,0.14897
1486.52147,0.15586
1485.03168,0.17684
1483.54189,0.16885
1482.05210,0.20758
1480.56231,0.24169
1479.07252,0.25842
1477.58274,0.29403
1476.09295,0.30095
1474.60316,0.29687
1473.11337,0.32240
1471.62358,0.31227
1470.13379,0.30594
1468.64401,0.32864
1467.15422,0.34093
1465.66443,0.35773
1464.17464,0.37456
1462.68485,0.41244
1461.19506,0.43150
1459.70527,0.50395
1458.21549,0.57759
1456.72570,0.63327
1455.23591,0.67853
1453.74612,0.76384
1452.25633,0.80218
1450.76654,0.84374
1449.27676,0.80642
1447.78697,0.79755
1446.29718,0.79190
1444.80739,0.77496
1443.31760,0.75804
1441.82781,0.69269
1440.33802,0.63376
1438.84824,0.57398
1437.35845,0.54729
1435.86866,0.53195
1434.37887,0.56681
1432.88908,0.62171
1431.39929,0.68128
1429.90951,0.77076
1428.41972,0.85416
1426.92993,0.92135
1425.44014,0.95258
1423.95035,0.95730
1422.46056,0.96204
1420.97078,1.00438
1419.48099,1.06153
1417.99120,1.05575
1416.50141,1.07930
1415.01162,1.04138
1413.52183,0.97969
1412.03204,0.91367
1410.54226,0.83114
1409.05247,0.75705
1407.56268,0.68385
1406.07289,0.63853
1404.58310,0.60468
1403.09331,0.57087
1401.60353,0.51807
1400.11374,0.45660
1398.62395,0.40037
1397.13416,0.34823
1395.64437,0.28567
1394.15458,0.25447
1392.66479,0.21719
1391.17501,0.18894
1389.68522,0.16128
1388.19543,0.11973
1386.70564,0.09880
1385.21585,0.07789
1383.72606,0.04976
1382.23628,0.04891
1380.74649,0.06086
1379.25670,0.03686
1377.76691,0.04421
1376.27712,0.01011
1374.78733,0.01257
1373.29755,0.00230
1371.80776,0.03106
1370.31797,0.01314
1368.82818,0.01410
1367.33839,0.01508
1365.84860,0.01899
1364.35881,0.02379
1362.86903,0.04689
1361.37924,0.07379
1359.88945,0.07576
1358.39966,0.12069
1356.90987,0.14128
1355.42008,0.21759
1353.93030,0.25418
1352.44051,0.28297
1350.95072,0.31177
1349.46093,0.39369
1347.97114,0.49275
1346.48135,0.60750
1344.99156,0.65845
1343.50178,0.70102
1342.01199,0.76507
1340.52220,0.78302
1339.03241,0.85293
1337.54262,0.91705
1336.05283,0.95611
1334.56305,0.99519
1333.07326,1.02284
1331.58347,0.98930
1330.09368,0.96449
1328.60389,0.95595
1327.11410,0.97412
1325.62432,0.93748
1324.13453,0.92002
1322.64474,0.88199
1321.15495,0.79437
1319.66516,0.76596
1318.17537,0.73757
1316.68558,0.68599
1315.19580,0.63531
1313.70601,0.59510
1312.21622,0.56391
1310.72643,0.56813
1309.23664,0.49376
1307.74685,0.48962
1306.25707,0.44663
1304.76728,0.41469
1303.27749,0.38277
1301.78770,0.34043
1300.29791,0.30450
1298.80812,0.24741
1297.31834,0.22574
1295.82855,0.17596
1294.33876,0.13809
1292.84897,0.12578
1291.35918,0.10972
1289.86939,0.10659
1288.37960,0.10349
1286.88982,0.09853
1285.40003,0.09939
1283.91024,0.07330
1282.42045,0.06637
1280.93066,0.07485
1279.44087,0.06363
1277.95109,0.04633
1276.46130,0.05169
1274.97151,0.03909
1273.48172,0.02651
1271.99193,0.02614
1270.50214,0.03362
1269.01235,0.02315
1267.52257,0.03039
1266.03278,0.01823
1264.54299,0.02668
1263.05320,0.02268
1261.56341,0.01798
1260.07362,0.01331
1258.58384,0.01954
1257.09405,0.01709
1255.60426,0.00538
1254.11447,0.01545
1252.62468,0.02178
1251.13489,0.00579
1249.64511,0.00230
1248.15532,0.00913
1246.66553,0.01351
1245.17574,0.01792
1243.68595,0.01554
1242.19616,0.02391
1240.70637,0.00997
1239.21659,0.00389
1237.72680,0.01030
1236.23701,0.01587
1234.74722,0.01363
1233.25743,0.00852
1231.76764,0.00342
1230.27786,0.01518
1228.78807,0.00230
1227.29828,0.00864
1225.80849,0.02688
1224.31870,0.01006
1222.82891,0.01501
1221.33912,0.02376
1219.84934,0.03224
1218.35955,0.04075
1216.86976,0.03477
1215.37997,0.04246
1213.89018,0.06264
1212.40039,0.05790
1210.91061,0.07668
1209.42082,0.08446
1207.93103,0.08067
1206.44124,0.07689
1204.95145,0.09055
1203.46166,0.05665
1201.97188,0.06833
1200.48209,0.07277
1198.99230,0.07115
1197.50251,0.05331
1196.01272,0.04013
1194.52293,0.03960
1193.03314,0.03909
1191.54336,0.03556
1190.05357,0.02712
1188.56378,0.04568
1187.07399,0.02714
1185.58420,0.02370
1184.09441,0.00230
1182.60463,0.01346
1181.11484,0.02464
1179.62505,0.01902
1178.13526,0.03286
1176.64547,0.01046
1175.15568,0.02609
1173.66589,0.02318
1172.17611,0.00230
1170.68632,0.01125
1169.19653,0.02023
1167.70674,0.02908
1166.21695,0.04346
1164.72716,0.03380
1163.23738,0.05897
1161.74759,0.05486
1160.25780,0.05716
1158.76801,0.06703
1157.27822,0.07692
1155.78843,0.07929
1154.29865,0.08633
1152.80886,0.09659
1151.31907,0.09700
1149.82928,0.12036
1148.33949,0.13213
1146.84970,0.13886
1145.35991,0.14561
1143.87013,0.15746
1142.38034,0.16614
1140.89055,0.17137
1139.40076,0.18474
1137.91097,0.21670
1136.42118,0.20488
1134.93140,0.22428
1133.44161,0.24369
1131.95182,0.22789
1130.46203,0.23821
1128.97224,0.27496
1127.48245,0.25575
1125.99266,0.26209
1124.50288,0.27164
1123.01309,0.26787
1121.52330,0.26413
1120.03351,0.25954
1118.54372,0.24656
1117.05393,0.27828
1115.56415,0.26564
1114.07436,0.25622
1112.58457,0.25030
1111.09478,0.24441
1109.60499,0.24869
1108.11520,0.24894
1106.62542,0.24312
1105.13563,0.24022
1103.64584,0.24286
1102.15605,0.23479
1100.66626,0.22732
1099.17647,0.21988
1097.68668,0.23219
1096.19690,0.21203
1094.70711,0.23338
1093.21732,0.23358
1091.72753,0.22365
1090.23774,0.22056
1088.74795,0.21749
1087.25817,0.21315
1085.76838,0.21724
1084.27859,0.20888
1082.78880,0.22520
1081.29901,0.20587
1079.80922,0.21992
1078.31943,0.22732
1076.82965,0.23474
1075.33986,0.23610
1073.85007,0.24851
1072.36028,0.23947
1070.87049,0.27629
1069.38070,0.29051
1067.89092,0.31303
1066.40113,0.33556
1064.91134,0.40961
1063.42155,0.52459
1061.93176,0.63350
1060.44197,0.72242
1058.95219,0.83864
1057.46240,0.89076
1055.97261,0.94291
1054.48282,1.03947
1052.99303,1.06556
1051.50324,1.06614
1050.01345,1.04732
1048.52367,1.09001
1047.03388,1.07631
1045.54409,1.06263
1044.05430,0.99836
1042.56451,0.90307
1041.07472,0.82811
1039.58494,0.74911
1038.09515,0.69160
1036.60536,0.65066
1035.11557,0.60973
1033.62578,0.53750
1032.13599,0.45805
1030.64620,0.39399
1029.15642,0.34475
1027.66663,0.31439
1026.17684,0.28406
1024.68705,0.25317
1023.19726,0.22056
1021.70747,0.18450
1020.21769,0.17022
1018.72790,0.17510
1017.23811,0.15855
1015.74832,0.14202
1014.25853,0.12580
1012.76874,0.10265
1011.27896,0.11143
1009.78917,0.09500
1008.29938,0.09570
1006.80959,0.08004
1005.31980,0.06441
1003.83001,0.03357
1002.34022,0.01551
1000.85044,0.03317
999.36065,0.04968
997.87086,0.05810
996.38107,0.06654
994.89128,0.09271
993.40149,0.10062
991.91171,0.11377
990.42192,0.13247
988.93213,0.13523
987.44234,0.14062
985.95255,0.14605
984.46276,0.15294
982.97297,0.15464
981.48319,0.12474
979.99340,0.08036
978.50361,0.08561
977.01382,0.09089
975.52403,0.06254
974.03424,0.06438
972.54446,0.03115
971.05467,0.01795
969.56488,0.00971
968.07509,0.00600
966.58530,0.00230
965.09551,0.02145
963.60573,0.01625
962.11594,0.00179
960.62615,0.01458
959.13636,0.00780
957.64657,0.00105
956.15678,0.01913
954.66699,0.01402
953.17721,0.03331
951.68742,0.04102
950.19763,0.05542
948.70784,0.06985
947.21805,0.06341
945.72826,0.08021
944.23848,0.05903
942.74869,0.10401
941.25890,0.11914
939.76911,0.12617
938.27932,0.13322
936.78953,0.17511
935.29974,0.18338
933.80996,0.22183
932.32017,0.23595
930.83038,0.23718
929.34059,0.23843
927.85080,0.26451
926.36101,0.29206
924.87123,0.32515
923.38144,0.39163
921.89165,0.43043
920.40186,0.46924
918.91207,0.58946
917.42228,0.72711
915.93250,0.86159
914.44271,1.10052
912.95292,1.20010
911.46313,1.29969
909.97334,1.51926
908.48355,1.78644
906.99376,1.96661
905.50398,1.95099
904.01419,1.95193
902.52440,1.95289
901.03461,2.00000
899.54482,1.97403
898.05503,1.89877
896.56525,1.73564
895.07546,1.57325
893.58567,1.41089
892.09588,1.16109
890.60609,0.91276
889.11630,0.69376
887.62651,0.53744
886.13673,0.46557
884.64694,0.39371
883.15715,0.27431
881.66736,0.21527
880.17757,0.16003
878.68778,0.13484
877.19800,0.10967
875.70821,0.06784
874.21842,0.03358
872.72863,0.03416
871.23884,0.02692
869.74905,0.02305
868.25927,0.01920
866.76948,0.00682
865.27969,0.03015
863.78990,0.05727
862.30011,0.04931
860.81032,0.06052
859.32053,0.07176
857.83075,0.08070
856.34096,0.10533
854.85117,0.13782
853.36138,0.14770
851.87159,0.15021
850.38180,0.15275
848.89202,0.15893
847.40223,0.20546
845.91244,0.22707
844.42265,0.22840
842.93286,0.22975
841.44307,0.23489
839.95329,0.25486
838.46350,0.26701
836.97371,0.29834
835.48392,0.29401
833.99413,0.28970
832.50434,0.30138
831.01455,0.29915
829.52477,0.27490
828.03498,0.23646
826.54519,0.20964
825.05540,0.18285
823.56561,0.18771
822.07582,0.16880
820.58604,0.16152
819.09625,0.15499
817.60646,0.14848
816.11667,0.14505
814.62688,0.14744
813.13709,0.13999
811.64730,0.13401
810.15752,0.14329
808.66773,0.15260
807.17794,0.15627
805.68815,0.16634
804.19836,0.16832
802.70857,0.17018
801.21879,0.17206
799.72900,0.16222
798.23921,0.15704
796.74942,0.15189
795.25963,0.15315
793.76984,0.15442
792.28006,0.15805
790.79027,0.16721
789.30048,0.18741
787.81069,0.21548
786.32090,0.22877
784.83111,0.24209
783.34132,0.28328
781.85154,0.30331
780.36175,0.35239
778.87196,0.38466
777.38217,0.41695
775.89238,0.43099
774.40259,0.42156
772.91281,0.45712
771.42302,0.42685
769.93323,0.39660
768.44344,0.33012
766.95365,0.28977
765.46386,0.25206
763.97407,0.22365
762.48429,0.20455
760.99450,0.18547
759.50471,0.13654
758.01492,0.11287
756.52513,0.11475
755.03534,0.10012
753.54556,0.08552
752.05577,0.08921
750.56598,0.08423
749.07619,0.07637
747.58640,0.05418
746.09661,0.03200
744.60683,0.03002
743.11704,0.01878
741.62725,0.01742
740.13746,0.00985
738.64767,0.00230
737.15788,0.01647
735.66809,0.01616
734.17831,0.01471
732.68852,0.01227
731.19873,0.00986
729.70894,0.00790
728.21915,0.01525
726.72936,0.00638
725.23958,0.00640
723.74979,0.00514
722.26000,0.00390
720.77021,0.00547
719.28042,0.01316
717.79063,0.00230
716.30084,0.00665
714.81106,0.01102
713.32127,0.01352
711.83148,0.03723
710.34169,0.02528
708.85190,0.01263
707.36211,0.00000
705.87233,0.03541
704.38254,0.02210
702.89275,0.04509
701.40296,0.04938
699.91317,0.05370
698.42338,0.05239
696.93360,0.07199
695.44381,0.08581
693.95402,0.09776
692.46423,0.10975
690.97444,0.11320
689.48465,0.15177
687.99486,0.17296
686.50508,0.18156
685.01529,0.19019
683.52550,0.22189
682.03571,0.24899
680.54592,0.28829
679.05613,0.27583
677.56635,0.26340
676.07656,0.24272
674.58677,0.22642
673.09698,0.23393
671.60719,0.21448
670.11740,0.19506
668.62761,0.17828
667.13783,0.16616
665.64804,0.15450
664.15825,0.14287
662.66846,0.11805
661.17867,0.09066
659.68888,0.08649
658.19910,0.07350
656.70931,0.06054
655.21952,0.05093
653.72973,0.04773
652.23994,0.02425
650.75015,0.03140
649.26037,0.03857
647.77058,0.04418
646.28079,0.06605
644.79100,0.05980
643.30121,0.05866
641.81142,0.05754
640.32163,0.05804
638.83185,0.05682
637.34206,0.02981
635.85227,0.02313
634.36248,0.01648
632.87269,0.00230
631.38290,0.02981
629.89312,0.02978
628.40333,0.02296
626.91354,0.01616
625.42375,0.00721
623.93396,0.01684
622.44417,0.01795
620.95438,0.01908
619.46460,0.02328
617.97481,0.06348
616.48502,0.09238
614.99523,0.10159
613.50544,0.11082
612.01565,0.14328
610.52587,0.17779
609.03608,0.20885
607.54629,0.22558
606.05650,0.24232
604.56671,0.28999
603.07692,0.35538
601.58714,0.38046
600.09735,0.40558
598.60756,0.45015
597.11777,0.46893
595.62798,0.46858
594.13819,0.46231
592.64840,0.45607
591.15862,0.44420
589.66883,0.36852
588.17904,0.29172
586.68925,0.24046
585.19946,0.18923
583.70967,0.18473
582.21989,0.16110
580.73010,0.14461
579.24031,0.12814
577.75052,0.10430
576.26073,0.09644
574.77094,0.08889
573.28115,0.07629
571.79137,0.06371
570.30158,0.07625
568.81179,0.09375
567.32200,0.10503
565.83221,0.11634
564.34242,0.13043
562.85264,0.15789
561.36285,0.15723
559.87306,0.17690
558.38327,0.19660
556.89348,0.20094
555.40369,0.19632
553.91391,0.21551
552.42412,0.23472
550.93433,0.23888
549.44454,0.23087
547.95475,0.24174
546.46496,0.25105
544.97517,0.26037
543.48539,0.26755
541.99560,0.29563
540.50581,0.31286
539.01602,0.33012
537.52623,0.40179
536.03644,0.43200
534.54666,0.47385
533.05687,0.50251
531.56708,0.53120
530.07729,0.55484
528.58750,0.56545
527.09771,0.60219
525.60792,0.63895
524.11814,0.70272
522.62835,0.75375
521.13856,0.83091
519.64877,0.83891
518.15898,0.84693
516.66919,0.88674
515.17941,0.89205
513.68962,0.88898
512.19983,0.88592
510.71004,0.86839
509.22025,0.80476
507.73046,0.77741
506.24068,0.71194
504.75089,0.64650
503.26110,0.52407
501.77131,0.40573
500.28152,0.35980
498.79173,0.31388
497.30194,0.24116
495.81216,0.20473
494.32237,0.18412
492.83258,0.16355
491.34279,0.12573
489.85300,0.09578
488.36321,0.09659
486.87343,0.10527
485.38364,0.11397
483.89385,0.11282
482.40406,0.10272
480.91427,0.10989
479.42448,0.11709
477.93469,0.16681
476.44491,0.19596
474.95512,0.21498
473.46533,0.23403
471.97554,0.26267
470.48575,0.24289
468.99596,0.22575
467.50618,0.21486
466.01639,0.20401
464.52660,0.15560
463.03681,0.10839
461.54702,0.08745
460.05723,0.06653
458.56745,0.05594
457.07766,0.05552
455.58787,0.03628
454.09808,0.01705
452.60829,0.01990
451.11850,0.01581
449.62871,0.02306
448.13893,0.03033
446.64914,0.01065
445.15935,0.00230
443.66956,0.02490
442.17977,0.02126
440.68998,0.01764
439.20020,0.01942
437.71041,0.03863
436.22062,0.04248
434.73083,0.04636
433.24104,0.02735
431.75125,0.04549
430.26146,0.04582
428.77168,0.04617
427.28189,0.05307
425.79210,0.03447
424.30231,0.03692
422.81252,0.03940
421.32273,0.04785
419.83295,0.04994
418.34316,0.03639
416.85337,0.02286
415.36358,0.02996
413.87379,0.02170
412.38400,0.02218
410.89422,0.02267
409.40443,0.00230
407.91464,0.02527
406.42485,0.02593
404.93506,0.02646
403.44527,0.02701
401.95548,0.02281
400.46570,0.01428
398.97591,0.01665
397.48612,0.01904
395.99633,0.02944
394.50654,0.01984
393.01675,0.02376
391.52697,0.02770
390.03718,0.05386
388.54739,0.02811
387.05760,0.01951
385.56781,0.01093
384.07802,0.02351
382.58824,0.03147
381.09845,0.02858
379.60866,0.02571
378.11887,0.04564
376.62908,0.01512
375.13929,0.00870
373.64950,0.00230
372.15972,0.01123
370.66993,0.02220
369.18014,0.01870
367.69035,0.01522
366.20056,0.01379
364.71077,0.01935
363.22099,0.02029
361.73120,0.02126
360.24141,0.02661
358.75162,0.04880
357.26183,0.04694
355.77204,0.04510
354.28225,0.03720
352.79247,0.04788
351.30268,0.06091
349.81289,0.07397
348.32310,0.05978
346.83331,0.07172
345.34352,0.05671
343.85374,0.04172
342.36395,0.02850
340.87416,0.03358
339.38437,0.03041
337.89458,0.02727
336.40479,0.05534
334.91501,0.02222
333.42522,0.01698
331.93543,0.01175
330.44564,0.02164
328.95585,0.02024
327.46606,0.01408
325.97627,0.00794
324.48649,0.00230
322.99670,0.02875
321.50691,0.05116
320.01712,0.07359
318.52733,0.08357
317.03754,0.08923
315.54776,0.08360
314.05797,0.07799
312.56818,0.04513
311.07839,0.02449
309.58860,0.03128
308.09881,0.03810
306.60902,0.06597
305.11924,0.04281
303.62945,0.02272
302.13966,0.00265
300.64987,0.00551
299.16008,0.00230
