1778.52000,0.00974
1777.03021,0.01082
1775.54042,0.01725
1774.05063,0.01336
1772.56085,0.01420
1771.07106,0.01977
1769.58127,0.01000
1768.09148,0.01091
1766.60169,0.01091
1765.11190,0.01313
1763.62212,0.00754
1762.13233,0.01294
1760.64254,0.01021
1759.15275,0.01504
1757.66296,0.01142
1756.17317,0.00000
1754.68339,0.00866
1753.19360,0.02204
1751.70381,0.01477
1750.21402,0.00532
1748.72423,0.00875
1747.23444,0.00907
1745.74465,0.01286
1744.25487,0.01073
1742.76508,0.00674
1741.27529,0.01353
1739.78550,0.01879
1738.29571,0.01592
1736.80592,0.01089
1735.31614,0.01089
1733.82635,0.02001
1732.33656,0.00095
1730.84677,0.00572
1729.35698,0.01335
1727.86719,0.00596
1726.37740,0.01206
1724.88762,0.01631
1723.39783,0.01745
1721.90804,0.00295
1720.41825,0.00533
1718.92846,0.00490
1717.43867,0.01391
1715.94889,0.00852
1714.45910,0.00880
1712.96931,0.00754
1711.47952,0.00932
1709.98973,0.01176
1708.49994,0.01735
1707.01016,0.01498
1705.52037,0.01264
1704.03058,0.00765
1702.54079,0.02056
1701.05100,0.00967
1699.56121,0.01917
1698.07142,0.02181
1696.58164,0.01757
1695.09185,0.03499
1693.60206,0.04365
1692.11227,0.03605
1690.62248,0.04288
1689.13269,0.02623
1687.64291,0.03312
1686.15312,0.04034
1684.66333,0.04602
1683.17354,0.04483
1681.68375,0.04084
1680.19396,0.02811
1678.70417,0.03201
1677.21439,0.03906
1675.72460,0.04740
1674.23481,0.04980
1672.74502,0.06101
1671.25523,0.06597
1669.76544,0.07033
1668.27566,0.06312
1666.78587,0.07599
1665.29608,0.07760
1663.80629,0.08990
1662.31650,0.10065
1660.82671,0.09607
1659.33693,0.10593
1657.84714,0.08699
1656.35735,0.09439
1654.86756,0.08490
1653.37777,0.09517
1651.88798,0.08729
1650.39819,0.09198
1648.90841,0.09418
1647.41862,0.09295
1645.92883,0.08784
1644.43904,0.08275
1642.94925,0.09382
1641.45946,0.07515
1639.96968,0.07280
1638.47989,0.09398
1636.99010,0.08040
1635.50031,0.09473
1634.01052,0.08213
1632.52073,0.10153
1631.03094,0.09337
1629.54116,0.08931
1628.05137,0.10722
1626.56158,0.11606
1625.07179,0.10737
1623.58200,0.10655
1622.09221,0.10105
1620.60243,0.09808
1619.11264,0.09419
1617.62285,0.10663
1616.13306,0.07647
1614.64327,0.08300
1613.15348,0.09269
1611.66370,0.11055
1610.17391,0.10650
1608.68412,0.10499
1607.19433,0.10193
1605.70454,0.09075
1604.21475,0.09181
1602.72496,0.09290
1601.23518,0.09809
1599.74539,0.07604
1598.25560,0.09725
1596.76581,0.10628
1595.27602,0.09276
1593.78623,0.09337
1592.29645,0.08931
1590.80666,0.08495
1589.31687,0.09159
1587.82708,0.09512
1586.33729,0.08802
1584.84750,0.09286
1583.35771,0.08800
1581.86793,0.09038
1580.37814,0.08024
1578.88835,0.11432
1577.39856,0.11081
1575.90877,0.07757
1574.41898,0.06377
1572.92920,0.05345
1571.43941,0.06853
1569.94962,0.05998
1568.45983,0.05146
1566.97004,0.03591
1565.48025,0.04200
1563.99047,0.03653
1562.50068,0.02763
1561.01089,0.03506
1559.52110,0.03781
1558.03131,0.02209
1556.54152,0.03084
1555.05173,0.03774
1553.56195,0.03369
1552.07216,0.02998
1550.58237,0.03037
1549.09258,0.00634
1547.60279,0.01556
1546.11300,0.00537
1544.62322,0.01400
1543.13343,0.01201
1541.64364,0.00754
1540.15385,0.01677
1538.66406,0.02602
1537.17427,0.01823
1535.68448,0.01484
1534.19470,0.02934
1532.70491,0.02194
1531.21512,0.02521
1529.72533,0.02631
1528.23554,0.01615
1526.74575,0.02670
1525.25597,0.03477
1523.76618,0.04318
1522.27639,0.03751
1520.78660,0.03500
1519.29681,0.04286
1517.80702,0.04259
1516.31724,0.02104
1514.82745,0.05184
1513.33766,0.04993
1511.84787,0.04804
1510.35808,0.04351
1508.86829,0.04308
1507.37850,0.03828
1505.88872,0.04636
1504.39893,0.05666
1502.90914,0.06102
1501.41935,0.07356
1499.92956,0.06419
1498.43977,0.08963
1496.94999,0.08908
1495.46020,0.09452
1493.97041,0.08901
1492.48062,0.11642
1490.99083,0.13258
1489.50104,0.13999
1488.01125,0.13443
1486.52147,0.12888
1485.03168,0.17898
1483.54189,0.18493
1482.05210,0.18745
1480.56231,0.24421
1479.07252,0.25210
1477.58274,0.28196
1476.09295,0.30119
1474.60316,0.31950
1473.11337,0.33032
1471.62358,0.31797
1470.13379,0.33323
1468.64401,0.32939
1467.15422,0.37384
1465.66443,0.38274
1464.17464,0.39167
1462.68485,0.42178
1461.19506,0.45818
1459.70527,0.52938
1458.21549,0.58494
1456.72570,0.62987
1455.23591,0.69645
1453.74612,0.78092
1452.25633,0.81558
1450.76654,0.83147
1449.27676,0.84394
1447.78697,0.81789
1446.29718,0.80973
1444.80739,0.78263
1443.31760,0.75556
1441.82781,0.68010
1440.33802,0.64351
1438.84824,0.58878
1437.35845,0.52249
1435.86866,0.53455
1434.37887,0.57421
1432.88908,0.61359
1431.39929,0.65111
1429.90951,0.73064
1428.41972,0.83308
1426.92993,0.90483
1425.44014,0.92584
1423.95035,0.94265
1422.46056,0.95948
1420.97078,0.98119
1419.48099,1.05212
1417.99120,1.03973
1416.50141,1.06308
1415.01162,1.03507
1413.52183,0.97857
1412.03204,0.91081
1410.54226,0.81613
1409.05247,0.73933
1407.56268,0.67917
1406.07289,0.63783
1404.58310,0.60968
1403.09331,0.58155
1401.60353,0.50770
1400.11374,0.45644
1398.62395,0.38044
1397.13416,0.33330
1395.64437,0.29182
1394.15458,0.23815
1392.66479,0.20362
1391.17501,0.18791
1389.68522,0.15562
1388.19543,0.10956
1386.70564,0.09691
1385.21585,0.08428
1383.72606,0.04457
1382.23628,0.03747
1380.74649,0.04794
1379.25670,0.03995
1377.76691,0.04703
1376.27712,0.01904
1374.78733,0.00611
1373.29755,0.01680
1371.80776,0.02469
1370.31797,0.00754
1368.82818,0.01723
1367.33839,0.02695
1365.84860,0.01116
1364.35881,0.03081
1362.86903,0.03637
1361.37924,0.07048
1359.88945,0.09019
1358.39966,0.10492
1356.90987,0.12281
1355.42008,0.20966
1353.93030,0.25015
1352.44051,0.28707
1350.95072,0.32401
1349.46093,0.40313
1347.97114,0.49010
1346.48135,0.57867
1344.99156,0.67572
1343.50178,0.70448
1342.01199,0.74267
1340.52220,0.76083
1339.03241,0.85296
1337.54262,0.91943
1336.05283,0.95599
1334.56305,0.99258
1333.07326,0.99519
1331.58347,0.99658
1330.09368,1.01209
1328.60389,0.99535
1327.11410,0.96830
1325.62432,0.95349
1324.13453,0.91834
1322.64474,0.89762
1321.15495,0.83777
1319.66516,0.80285
1318.17537,0.76795
1316.68558,0.68999
1315.19580,0.64684
1313.70601,0.60904
1312.21622,0.58537
1310.72643,0.54167
1309.23664,0.52588
1307.74685,0.50510
1306.25707,0.43953
1304.76728,0.41081
1303.27749,0.38212
1301.78770,0.34107
1300.29791,0.30130
1298.80812,0.23618
1297.31834,0.22184
1295.82855,0.19248
1294.33876,0.15281
1292.84897,0.13510
1291.35918,0.07762
1289.86939,0.08769
1288.37960,0.09779
1286.88982,0.08895
1285.40003,0.09737
1283.91024,0.07981
1282.42045,0.07387
1280.93066,0.06826
1279.44087,0.08117
1277.95109,0.08721
1276.46130,0.04251
1274.97151,0.03607
1273.48172,0.02965
1271.99193,0.03202
1270.50214,0.03035
1269.01235,0.03623
1267.52257,0.04056
1266.03278,0.02800
1264.54299,0.03332
1263.05320,0.03772
1261.56341,0.03197
1260.07362,0.02624
1258.58384,0.00973
1257.09405,0.03805
1255.60426,0.03976
1254.11447,0.00828
1252.62468,0.00754
1251.13489,0.00864
1249.64511,0.02073
1248.15532,0.02909
1246.66553,0.02227
1245.17574,0.01548
1243.68595,0.01827
1242.19616,0.02892
1240.70637,0.01954
1239.21659,0.02962
1237.72680,0.01809
1236.23701,0.03198
1234.74722,0.02740
1233.25743,0.02221
1231.76764,0.01706
1230.27786,0.00754
1228.78807,0.01446
1227.29828,0.02831
1225.80849,0.02651
1224.31870,0.00907
1222.82891,0.01547
1221.33912,0.02441
1219.84934,0.02945
1218.35955,0.03451
1216.86976,0.03192
1215.37997,0.03281
1213.89018,0.06536
1212.40039,0.05846
1210.91061,0.07916
1209.42082,0.08955
1207.93103,0.08131
1206.44124,0.07310
1204.95145,0.06946
1203.46166,0.06584
1201.97188,0.06600
1200.48209,0.07936
1198.99230,0.05074
1197.50251,0.05349
1196.01272,0.03903
1194.52293,0.02867
1193.03314,0.01833
1191.54336,0.01585
1190.05357,0.02248
1188.56378,0.01284
1187.07399,0.01984
1185.58420,0.01621
1184.09441,0.01166
1182.60463,0.01011
1181.11484,0.00859
1179.62505,0.01351
1178.13526,0.02316
1176.64547,0.03002
1175.15568,0.02436
1173.66589,0.00714
1172.17611,0.01842
1170.68632,0.01297
1169.19653,0.00754
1167.70674,0.00775
1166.21695,0.02334
1164.72716,0.04523
1163.23738,0.02953
1161.74759,0.03329
1160.25780,0.05431
1158.76801,0.06329
1157.27822,0.07229
1155.78843,0.07897
1154.29865,0.07377
1152.80886,0.07768
1151.31907,0.08443
1149.82928,0.07303
1148.33949,0.12057
1146.84970,0.13257
1145.35991,0.14459
1143.87013,0.14865
1142.38034,0.15493
1140.89055,0.15527
1139.40076,0.16880
1137.91097,0.18800
1136.42118,0.23135
1134.93140,0.22490
1133.44161,0.21848
1131.95182,0.22963
1130.46203,0.22921
1128.97224,0.26547
1127.48245,0.26636
1125.99266,0.27071
1124.50288,0.26851
1123.01309,0.26414
1121.52330,0.25980
1120.03351,0.24137
1118.54372,0.25400
1117.05393,0.24754
1115.56415,0.26209
1114.07436,0.24659
1112.58457,0.24271
1111.09478,0.23885
1109.60499,0.23533
1108.11520,0.25345
1106.62542,0.24121
1105.13563,0.24873
1103.64584,0.22557
1102.15605,0.23690
1100.66626,0.22256
1099.17647,0.20825
1097.68668,0.20775
1096.19690,0.22450
1094.70711,0.22311
1093.21732,0.22175
1091.72753,0.21790
1090.23774,0.21172
1088.74795,0.20557
1087.25817,0.20368
1085.76838,0.19585
1084.27859,0.19965
1082.78880,0.20002
1081.29901,0.19917
1079.80922,0.20930
1078.31943,0.20975
1076.82965,0.21022
1075.33986,0.21511
1073.85007,0.23255
1072.36028,0.23717
1070.87049,0.24777
1069.38070,0.24617
1067.89092,0.28126
1066.40113,0.31638
1064.91134,0.38379
1063.42155,0.49980
1061.93176,0.63244
1060.44197,0.68207
1058.95219,0.77058
1057.46240,0.80506
1055.97261,0.83957
1054.48282,0.97265
1052.99303,1.01206
1051.50324,1.02298
1050.01345,1.05523
1048.52367,1.03581
1047.03388,1.03552
1045.54409,1.03526
1044.05430,0.94165
1042.56451,0.89976
1041.07472,0.80432
1039.58494,0.75527
1038.09515,0.68557
1036.60536,0.65021
1035.11557,0.61487
1033.62578,0.50106
1032.13599,0.44712
1030.64620,0.39353
1029.15642,0.34246
1027.66663,0.30740
1026.17684,0.27237
1024.68705,0.24049
1023.19726,0.20676
1021.70747,0.19624
1020.21769,0.16695
1018.72790,0.17309
1017.23811,0.15654
1015.74832,0.14001
1014.25853,0.10172
1012.76874,0.12896
1011.27896,0.12739
1009.78917,0.14151
1008.29938,0.12463
1006.80959,0.10888
1005.31980,0.09315
1003.83001,0.03906
1002.34022,0.01947
1000.85044,0.04940
999.36065,0.06997
997.87086,0.07457
996.38107,0.07920
994.89128,0.08417
993.40149,0.10734
991.91171,0.11111
990.42192,0.12806
988.93213,0.13720
987.44234,0.14089
985.95255,0.14459
984.46276,0.14128
982.97297,0.12984
981.48319,0.13503
979.99340,0.07726
978.50361,0.07608
977.01382,0.07492
975.52403,0.06925
974.03424,0.03195
972.54446,0.01724
971.05467,0.02229
969.56488,0.01671
968.07509,0.01758
966.58530,0.01848
965.09551,0.02739
963.60573,0.03696
962.11594,0.02524
960.62615,0.00759
959.13636,0.00755
957.64657,0.00754
956.15678,0.02225
954.66699,0.03980
953.17721,0.03795
951.68742,0.06684
950.19763,0.08369
948.70784,0.10056
947.21805,0.09568
945.72826,0.07421
944.23848,0.09382
942.74869,0.12724
941.25890,0.14189
939.76911,0.14904
938.27932,0.15621
936.78953,0.19631
935.29974,0.21200
933.80996,0.25183
932.32017,0.29013
930.83038,0.27439
929.34059,0.25869
927.85080,0.28139
926.36101,0.31258
924.87123,0.37293
923.38144,0.44992
921.89165,0.49450
920.40186,0.53910
918.91207,0.62901
917.42228,0.80198
915.93250,0.92610
914.44271,1.11259
912.95292,1.19994
911.46313,1.28731
909.97334,1.53279
908.48355,1.76231
906.99376,1.92919
905.50398,1.96668
904.01419,1.95092
902.52440,1.93519
901.03461,1.96210
899.54482,2.00000
898.05503,1.91384
896.56525,1.73056
895.07546,1.57770
893.58567,1.42487
892.09588,1.17805
890.60609,0.91904
889.11630,0.73213
887.62651,0.54336
886.13673,0.47713
884.64694,0.41094
883.15715,0.30403
881.66736,0.21720
880.17757,0.18867
878.68778,0.16331
877.19800,0.13797
875.70821,0.06973
874.21842,0.04789
872.72863,0.03767
871.23884,0.03969
869.74905,0.02622
868.25927,0.01279
866.76948,0.02710
865.27969,0.03769
863.78990,0.05989
862.30011,0.08807
860.81032,0.09465
859.32053,0.10126
857.83075,0.07750
856.34096,0.08290
854.85117,0.12875
853.36138,0.15708
851.87159,0.15191
850.38180,0.14676
848.89202,0.16826
847.40223,0.19826
845.91244,0.23580
844.42265,0.24077
842.93286,0.24578
841.44307,0.24046
839.95329,0.22138
838.46350,0.28035
836.97371,0.29329
835.48392,0.28556
833.99413,0.27787
832.50434,0.27207
831.01455,0.27508
829.52477,0.26088
828.03498,0.22539
826.54519,0.20042
825.05540,0.17548
823.56561,0.20117
822.07582,0.13570
820.58604,0.13857
819.09625,0.14647
817.60646,0.15440
816.11667,0.12131
814.62688,0.13806
813.13709,0.14575
811.64730,0.12777
810.15752,0.12877
808.66773,0.12980
807.17794,0.15357
805.68815,0.14477
804.19836,0.13945
802.70857,0.15233
801.21879,0.16523
799.72900,0.15497
798.23921,0.15413
796.74942,0.12794
795.25963,0.13483
793.76984,0.14175
792.28006,0.15730
790.79027,0.17884
789.30048,0.18787
787.81069,0.19379
786.32090,0.19738
784.83111,0.20100
783.34132,0.25995
781.85154,0.30827
780.36175,0.35191
778.87196,0.38273
777.38217,0.41358
775.89238,0.41969
774.40259,0.44432
772.91281,0.40725
771.42302,0.40607
769.93323,0.40493
768.44344,0.33189
766.95365,0.27705
765.46386,0.24762
763.97407,0.21382
762.48429,0.20528
760.99450,0.19676
759.50471,0.14643
758.01492,0.13091
756.52513,0.10444
755.03534,0.09916
753.54556,0.09389
752.05577,0.10636
750.56598,0.08438
749.07619,0.05366
747.58640,0.04928
746.09661,0.04492
744.60683,0.04592
743.11704,0.03441
741.62725,0.03169
740.13746,0.01960
738.64767,0.00754
737.15788,0.02351
735.66809,0.03575
734.17831,0.02639
732.68852,0.02881
731.19873,0.03126
729.70894,0.03106
728.21915,0.01648
726.72936,0.02134
725.23958,0.02404
723.74979,0.01737
722.26000,0.01072
720.77021,0.00754
719.28042,0.01721
717.79063,0.02534
716.30084,0.02582
714.81106,0.02632
713.32127,0.03985
711.83148,0.03492
710.34169,0.04537
708.85190,0.04221
707.36211,0.03908
705.87233,0.04552
704.38254,0.05732
702.89275,0.05254
701.40296,0.04402
699.91317,0.03553
698.42338,0.05150
696.93360,0.08442
695.44381,0.11611
693.95402,0.12386
692.46423,0.13162
690.97444,0.13895
689.48465,0.16322
687.99486,0.17184
686.50508,0.18253
685.01529,0.19324
683.52550,0.19630
682.03571,0.26143
680.54592,0.29462
679.05613,0.29071
677.56635,0.28682
676.07656,0.24989
674.58677,0.22083
673.09698,0.21748
671.60719,0.22105
670.11740,0.22465
668.62761,0.19913
667.13783,0.16799
665.64804,0.15129
664.15825,0.13462
662.66846,0.11202
661.17867,0.10386
659.68888,0.08695
658.19910,0.08024
656.70931,0.07357
655.21952,0.04451
653.72973,0.03302
652.23994,0.04193
650.75015,0.05227
649.26037,0.06264
647.77058,0.04938
646.28079,0.04491
644.79100,0.05143
643.30121,0.05610
641.81142,0.06080
640.32163,0.06959
638.83185,0.04331
637.34206,0.02395
635.85227,0.01903
634.36248,0.01414
632.87269,0.01585
631.38290,0.00943
629.89312,0.00978
628.40333,0.01455
626.91354,0.01933
625.42375,0.00754
623.93396,0.01230
622.44417,0.00941
620.95438,0.00655
619.46460,0.04335
617.97481,0.05823
616.48502,0.07534
614.99523,0.09342
613.50544,0.11151
612.01565,0.13841
610.52587,0.17912
609.03608,0.19604
607.54629,0.21361
606.05650,0.23120
604.56671,0.26700
603.07692,0.33885
601.58714,0.36467
600.09735,0.39051
598.60756,0.46620
597.11777,0.44070
595.62798,0.45157
594.13819,0.43458
592.64840,0.41762
591.15862,0.39974
589.66883,0.34115
588.17904,0.28007
586.68925,0.24911
585.19946,0.21817
583.70967,0.16845
582.21989,0.15166
580.73010,0.13709
579.24031,0.12254
577.75052,0.09579
576.26073,0.11138
574.77094,0.08876
573.28115,0.07353
571.79137,0.05832
570.30158,0.07588
568.81179,0.09065
567.32200,0.09823
565.83221,0.10584
564.34242,0.13479
562.85264,0.12741
561.36285,0.16987
559.87306,0.16881
558.38327,0.16777
556.89348,0.18869
555.40369,0.19616
553.91391,0.20992
552.42412,0.22371
550.93433,0.25131
549.44454,0.21751
547.95475,0.23106
546.46496,0.23759
544.97517,0.24413
543.48539,0.27656
541.99560,0.27798
540.50581,0.30670
539.01602,0.33543
537.52623,0.40431
536.03644,0.43654
534.54666,0.48948
533.05687,0.48134
531.56708,0.47323
530.07729,0.52562
528.58750,0.59307
527.09771,0.61151
525.60792,0.62997
524.11814,0.70502
522.62835,0.76067
521.13856,0.81571
519.64877,0.81829
518.15898,0.82090
516.66919,0.85408
515.17941,0.88948
513.68962,0.87759
512.19983,0.86573
510.71004,0.81754
509.22025,0.82672
507.73046,0.73690
506.24068,0.68377
504.75089,0.63067
503.26110,0.50113
501.77131,0.41423
500.28152,0.36982
498.79173,0.32543
497.30194,0.26462
495.81216,0.22044
494.32237,0.21247
492.83258,0.20453
491.34279,0.13567
489.85300,0.08783
488.36321,0.08419
486.87343,0.09625
485.38364,0.10834
483.89385,0.11825
482.40406,0.10970
480.91427,0.12139
479.42448,0.13310
477.93469,0.13653
476.44491,0.18354
474.95512,0.20003
473.46533,0.21654
471.97554,0.23104
470.48575,0.23617
468.99596,0.22377
467.50618,0.20042
466.01639,0.17711
464.52660,0.15350
463.03681,0.09827
461.54702,0.09320
460.05723,0.08816
458.56745,0.06935
457.07766,0.03114
455.58787,0.02366
454.09808,0.01621
452.60829,0.02132
451.11850,0.01298
449.62871,0.01437
448.13893,0.01580
446.64914,0.03448
445.15935,0.02811
443.66956,0.01394
442.17977,0.01672
440.68998,0.01952
439.20020,0.03895
437.71041,0.04556
436.22062,0.05000
434.73083,0.05446
433.24104,0.04078
431.75125,0.04373
430.26146,0.06252
428.77168,0.08134
427.28189,0.05992
425.79210,0.04887
424.30231,0.04646
422.81252,0.04407
421.32273,0.05597
419.83295,0.04564
418.34316,0.05132
416.85337,0.05702
415.36358,0.03172
413.87379,0.04374
412.38400,0.03338
410.89422,0.02305
409.40443,0.04517
407.91464,0.04695
406.42485,0.02681
404.93506,0.02989
403.44527,0.03300
401.95548,0.04678
400.46570,0.04054
398.97591,0.03259
397.48612,0.02467
395.99633,0.00754
394.50654,0.05473
393.01675,0.05166
391.52697,0.04862
390.03718,0.08116
388.54739,0.02004
387.05760,0.01377
385.56781,0.00754
384.07802,0.01886
382.58824,0.00734
381.09845,0.02311
379.60866,0.03890
378.11887,0.01335
376.62908,0.02793
375.13929,0.01466
373.64950,0.00140
372.15972,0.01254
370.66993,0.04031
369.18014,0.03128
367.69035,0.02228
366.20056,0.03822
364.71077,0.02316
363.22099,0.03052
361.73120,0.03792
360.24141,0.04299
358.75162,0.03523
357.26183,0.04552
355.77204,0.05583
354.28225,0.02245
352.79247,0.05585
351.30268,0.07360
349.81289,0.09137
348.32310,0.07690
346.83331,0.03989
345.34352,0.04301
343.85374,0.04616
342.36395,0.02865
340.87416,0.02620
339.38437,0.04008
337.89458,0.05398
336.40479,0.04910
334.91501,0.05459
333.42522,0.03958
331.93543,0.02459
330.44564,0.05711
328.95585,0.04609
327.46606,0.03180
325.97627,0.01754
324.48649,0.00754
322.99670,0.05077
321.50691,0.07210
320.01712,0.09345
318.52733,0.11545
317.03754,0.09737
315.54776,0.07211
314.05797,0.04687
312.56818,0.03983
311.07839,0.03877
309.58860,0.04337
308.09881,0.04800
306.60902,0.05861
305.11924,0.04511
303.62945,0.02631
302.13966,0.00754
300.64987,0.01254
299.16008,0.00754
