1778.52000,0.00401
1777.03021,0.00394
1775.54042,0.01035
1774.05063,0.00925
1772.56085,0.01570
1771.07106,0.01357
1769.58127,0.01986
1768.09148,0.01089
1766.60169,0.01271
1765.11190,0.01691
1763.62212,0.01770
1762.13233,0.01507
1760.64254,0.01160
1759.15275,0.01396
1757.66296,0.02087
1756.17317,0.00864
1754.68339,0.02722
1753.19360,0.01762
1751.70381,0.02355
1750.21402,0.01831
1748.72423,0.00878
1747.23444,0.01635
1745.74465,0.01791
1744.25487,0.01993
1742.76508,0.02025
1741.27529,0.01887
1739.78550,0.02117
1738.29571,0.02264
1736.80592,0.01983
1735.31614,0.01617
1733.82635,0.01578
1732.33656,0.00937
1730.84677,0.01031
1729.35698,0.01450
1727.86719,0.01398
1726.37740,0.01477
1724.88762,0.02097
1723.39783,0.01084
1721.90804,0.01041
1720.41825,0.00721
1718.92846,0.00908
1717.43867,0.01528
1715.94889,0.01075
1714.45910,0.01399
1712.96931,0.01402
1711.47952,0.01041
1709.98973,0.01652
1708.49994,0.02135
1707.01016,0.01814
1705.52037,0.01495
1704.03058,0.01642
1702.54079,0.01296
1701.05100,0.01275
1699.56121,0.00546
1698.07142,0.02066
1696.58164,0.00920
1695.09185,0.01929
1693.60206,0.01993
1692.11227,0.01543
1690.62248,0.01719
1689.13269,0.02156
1687.64291,0.01197
1686.15312,0.01897
1684.66333,0.02083
1683.17354,0.01518
1681.68375,0.01235
1680.19396,0.00761
1678.70417,0.01881
1677.21439,0.01928
1675.72460,0.02860
1674.23481,0.02137
1672.74502,0.02557
1671.25523,0.02376
1669.76544,0.04544
1668.27566,0.04411
1666.78587,0.04130
1665.29608,0.03787
1663.80629,0.05577
1662.31650,0.05927
1660.82671,0.05118
1659.33693,0.06183
1657.84714,0.06734
1656.35735,0.05910
1654.86756,0.05928
1653.37777,0.06486
1651.88798,0.06013
1650.39819,0.07308
1648.90841,0.08454
1647.41862,0.07989
1645.92883,0.07375
1644.43904,0.06763
1642.94925,0.07984
1641.45946,0.09357
1639.96968,0.07935
1638.47989,0.08990
1636.99010,0.07766
1635.50031,0.08654
1634.01052,0.09113
1632.52073,0.09338
1631.03094,0.07134
1629.54116,0.08203
1628.05137,0.09275
1626.56158,0.08713
1625.07179,0.08993
1623.58200,0.09491
1622.09221,0.09410
1620.60243,0.09611
1619.11264,0.09986
1617.62285,0.09869
1616.13306,0.07603
1614.64327,0.07060
1613.15348,0.08714
1611.66370,0.09962
1610.17391,0.09922
1608.68412,0.08700
1607.19433,0.07588
1605.70454,0.07511
1604.21475,0.08061
1602.72496,0.08613
1601.23518,0.07897
1599.74539,0.08863
1598.25560,0.09358
1596.76581,0.09403
1595.27602,0.09256
1593.78623,0.08660
1592.29645,0.08734
1590.80666,0.08401
1589.31687,0.08350
1587.82708,0.06795
1586.33729,0.07847
1584.84750,0.09073
1583.35771,0.06772
1581.86793,0.07357
1580.37814,0.09192
1578.88835,0.08555
1577.39856,0.07125
1575.90877,0.05825
1574.41898,0.06465
1572.92920,0.04374
1571.43941,0.04739
1569.94962,0.04966
1568.45983,0.05196
1566.97004,0.03954
1565.48025,0.03101
1563.99047,0.02983
1562.50068,0.02243
1561.01089,0.02861
1559.52110,0.01867
1558.03131,0.00747
1556.54152,0.01264
1555.05173,0.00708
1553.56195,0.00004
1552.07216,0.01411
1550.58237,0.00216
1549.09258,0.00874
1547.60279,0.01578
1546.11300,0.00089
1544.62322,0.00776
1543.13343,0.00454
1541.64364,0.00392
1540.15385,0.00806
1538.66406,0.01223
1537.17427,0.00394
1535.68448,0.01594
1534.19470,0.01786
1532.70491,0.02647
1531.21512,0.01294
1529.72533,0.02052
1528.23554,0.01349
1526.74575,0.02434
1525.25597,0.02705
1523.76618,0.03859
1522.27639,0.03467
1520.78660,0.04799
1519.29681,0.04390
1517.80702,0.03338
1516.31724,0.04547
1514.82745,0.04102
1513.33766,0.04359
1511.84787,0.04618
1510.35808,0.04783
1508.86829,0.05552
1507.37850,0.04215
1505.88872,0.03913
1504.39893,0.06777
1502.90914,0.05727
1501.41935,0.06207
1499.92956,0.07443
1498.43977,0.06356
1496.94999,0.08866
1495.46020,0.06235
1493.97041,0.08449
1492.48062,0.09675
1490.99083,0.09655
1489.50104,0.10799
1488.01125,0.11343
1486.52147,0.11890
1485.03168,0.13687
1483.54189,0.15658
1482.05210,0.16427
1480.56231,0.17672
1479.07252,0.17542
1477.58274,0.20749
1476.09295,0.21312
1474.60316,0.21318
1473.11337,0.21757
1471.62358,0.21724
1470.13379,0.22082
1468.64401,0.20483
1467.15422,0.22825
1465.66443,0.24136
1464.17464,0.25450
1462.68485,0.29068
1461.19506,0.32129
1459.70527,0.36334
1458.21549,0.43122
1456.72570,0.47331
1455.23591,0.51736
1453.74612,0.56875
1452.25633,0.63329
1450.76654,0.65309
1449.27676,0.67292
1447.78697,0.67276
1446.29718,0.65863
1444.80739,0.63969
1443.31760,0.62077
1441.82781,0.58110
1440.33802,0.55373
1438.84824,0.49776
1437.35845,0.45171
1435.86866,0.44915
1434.37887,0.45523
1432.88908,0.49317
1431.39929,0.55546
1429.90951,0.62272
1428.41972,0.71733
1426.92993,0.78335
1425.44014,0.81410
1423.95035,0.83637
1422.46056,0.85866
1420.97078,0.88432
1419.48099,0.93754
1417.99120,0.94108
1416.50141,0.92871
1415.01162,0.87936
1413.52183,0.88146
1412.03204,0.82785
1410.54226,0.77189
1409.05247,0.67572
1407.56268,0.60518
1406.07289,0.57017
1404.58310,0.53304
1403.09331,0.49592
1401.60353,0.45173
1400.11374,0.39745
1398.62395,0.35416
1397.13416,0.31219
1395.64437,0.26616
1394.15458,0.22165
1392.66479,0.19438
1391.17501,0.17059
1389.68522,0.14810
1388.19543,0.10670
1386.70564,0.09115
1385.21585,0.07562
1383.72606,0.05818
1382.23628,0.03280
1380.74649,0.02444
1379.25670,0.02623
1377.76691,0.03922
1376.27712,0.00361
1374.78733,0.00589
1373.29755,0.01379
1371.80776,0.00385
1370.31797,0.02600
1368.82818,0.02236
1367.33839,0.01873
1365.84860,0.00394
1364.35881,0.01841
1362.86903,0.02558
1361.37924,0.04204
1359.88945,0.06346
1358.39966,0.08620
1356.90987,0.11349
1355.42008,0.17286
1353.93030,0.21245
1352.44051,0.23905
1350.95072,0.26568
1349.46093,0.35032
1347.97114,0.43993
1346.48135,0.52139
1344.99156,0.58545
1343.50178,0.66222
1342.01199,0.69856
1340.52220,0.72933
1339.03241,0.77605
1337.54262,0.84560
1336.05283,0.87902
1334.56305,0.91247
1333.07326,0.95046
1331.58347,0.96674
1330.09368,0.95958
1328.60389,0.94557
1327.11410,0.90188
1325.62432,0.90749
1324.13453,0.85502
1322.64474,0.83163
1321.15495,0.80654
1319.66516,0.77373
1318.17537,0.74094
1316.68558,0.65954
1315.19580,0.61712
1313.70601,0.56138
1312.21622,0.51405
1310.72643,0.48439
1309.23664,0.44378
1307.74685,0.41955
1306.25707,0.38716
1304.76728,0.36675
1303.27749,0.34635
1301.78770,0.30177
1300.29791,0.25248
1298.80812,0.22731
1297.31834,0.19507
1295.82855,0.16930
1294.33876,0.14249
1292.84897,0.10945
1291.35918,0.09000
1289.86939,0.09209
1288.37960,0.09420
1286.88982,0.08214
1285.40003,0.07547
1283.91024,0.06754
1282.42045,0.04844
1280.93066,0.06251
1279.44087,0.05465
1277.95109,0.04359
1276.46130,0.03728
1274.97151,0.03412
1273.48172,0.03098
1271.99193,0.01592
1270.50214,0.02240
1269.01235,0.03128
1267.52257,0.02554
1266.03278,0.01402
1264.54299,0.00037
1263.05320,0.02677
1261.56341,0.01930
1260.07362,0.01185
1258.58384,0.00884
1257.09405,0.01037
1255.60426,0.00246
1254.11447,0.00496
1252.62468,0.00318
1251.13489,0.00508
1249.64511,0.00356
1248.15532,0.00743
1246.66553,0.00583
1245.17574,0.00426
1243.68595,0.02604
1242.19616,0.02760
1240.70637,0.01757
1239.21659,0.02392
1237.72680,0.01889
1236.23701,0.01409
1234.74722,0.00674
1233.25743,0.00533
1231.76764,0.00394
1230.27786,0.01580
1228.78807,0.02725
1227.29828,0.02517
1225.80849,0.03387
1224.31870,0.02044
1222.82891,0.03198
1221.33912,0.04420
1219.84934,0.03815
1218.35955,0.03212
1216.86976,0.03881
1215.37997,0.05005
1213.89018,0.04710
1212.40039,0.07044
1210.91061,0.07012
1209.42082,0.06015
1207.93103,0.06085
1206.44124,0.06157
1204.95145,0.06350
1203.46166,0.06244
1201.97188,0.06636
1200.48209,0.07482
1198.99230,0.06888
1197.50251,0.04962
1196.01272,0.04008
1194.52293,0.03755
1193.03314,0.03504
1191.54336,0.03546
1190.05357,0.03935
1188.56378,0.02024
1187.07399,0.01771
1185.58420,0.03200
1184.09441,0.01404
1182.60463,0.01245
1181.11484,0.01088
1179.62505,0.00955
1178.13526,0.01385
1176.64547,0.02160
1175.15568,0.03089
1173.66589,0.02127
1172.17611,0.03792
1170.68632,0.02092
1169.19653,0.00394
1167.70674,0.01792
1166.21695,0.03020
1164.72716,0.04057
1163.23738,0.03848
1161.74759,0.05879
1160.25780,0.06535
1158.76801,0.07420
1157.27822,0.08307
1155.78843,0.09122
1154.29865,0.09336
1152.80886,0.10585
1151.31907,0.11966
1149.82928,0.12897
1148.33949,0.15530
1146.84970,0.17058
1145.35991,0.18588
1143.87013,0.17054
1142.38034,0.16663
1140.89055,0.16252
1139.40076,0.17372
1137.91097,0.20302
1136.42118,0.21297
1134.93140,0.21768
1133.44161,0.22241
1131.95182,0.24879
1130.46203,0.24141
1128.97224,0.24567
1127.48245,0.29062
1125.99266,0.28116
1124.50288,0.28248
1123.01309,0.28565
1121.52330,0.28885
1120.03351,0.25366
1118.54372,0.25313
1117.05393,0.26275
1115.56415,0.27411
1114.07436,0.26333
1112.58457,0.26182
1111.09478,0.26034
1109.60499,0.26319
1108.11520,0.26240
1106.62542,0.24076
1105.13563,0.23184
1103.64584,0.22015
1102.15605,0.22118
1100.66626,0.21545
1099.17647,0.20975
1097.68668,0.21665
1096.19690,0.21562
1094.70711,0.23119
1093.21732,0.21923
1091.72753,0.20342
1090.23774,0.20076
1088.74795,0.19813
1087.25817,0.19229
1085.76838,0.18863
1084.27859,0.17014
1082.78880,0.17858
1081.29901,0.18122
1079.80922,0.19960
1078.31943,0.19595
1076.82965,0.19232
1075.33986,0.20518
1073.85007,0.21548
1072.36028,0.23118
1070.87049,0.21828
1069.38070,0.24479
1067.89092,0.24743
1066.40113,0.25010
1064.91134,0.30207
1063.42155,0.38893
1061.93176,0.48786
1060.44197,0.58832
1058.95219,0.69461
1057.46240,0.74971
1055.97261,0.80484
1054.48282,0.85052
1052.99303,0.90676
1051.50324,0.91935
1050.01345,0.92508
1048.52367,0.94869
1047.03388,0.95005
1045.54409,0.95143
1044.05430,0.90302
1042.56451,0.79847
1041.07472,0.75377
1039.58494,0.66648
1038.09515,0.63194
1036.60536,0.59516
1035.11557,0.55840
1033.62578,0.47788
1032.13599,0.44408
1030.64620,0.38577
1029.15642,0.33501
1027.66663,0.30407
1026.17684,0.27316
1024.68705,0.22979
1023.19726,0.18774
1021.70747,0.16142
1020.21769,0.14803
1018.72790,0.13166
1017.23811,0.12391
1015.74832,0.11619
1014.25853,0.09386
1012.76874,0.08877
1011.27896,0.07187
1009.78917,0.06618
1008.29938,0.05276
1006.80959,0.04238
1005.31980,0.03203
1003.83001,0.01933
1002.34022,0.01613
1000.85044,0.03425
999.36065,0.03949
997.87086,0.03560
996.38107,0.03173
994.89128,0.06179
993.40149,0.05894
991.91171,0.08409
990.42192,0.08817
988.93213,0.09787
987.44234,0.09899
985.95255,0.10014
984.46276,0.10324
982.97297,0.09173
981.48319,0.06992
979.99340,0.06233
978.50361,0.05961
977.01382,0.05691
975.52403,0.05456
974.03424,0.02921
972.54446,0.02325
971.05467,0.02097
969.56488,0.00408
968.07509,0.00400
966.58530,0.00394
965.09551,0.01375
963.60573,0.02057
962.11594,0.00827
960.62615,0.00352
959.13636,0.00564
957.64657,0.00778
956.15678,0.02511
954.66699,0.02375
953.17721,0.02133
951.68742,0.03013
950.19763,0.04153
948.70784,0.05296
947.21805,0.08334
945.72826,0.07674
944.23848,0.09147
942.74869,0.10923
941.25890,0.12400
939.76911,0.13492
938.27932,0.14587
936.78953,0.17276
935.29974,0.18999
933.80996,0.21220
932.32017,0.25660
930.83038,0.25303
929.34059,0.24948
927.85080,0.25069
926.36101,0.27345
924.87123,0.28159
923.38144,0.33925
921.89165,0.36348
920.40186,0.38773
918.91207,0.47408
917.42228,0.58822
915.93250,0.73250
914.44271,0.95235
912.95292,1.08581
911.46313,1.21930
909.97334,1.43448
908.48355,1.69014
906.99376,1.84684
905.50398,1.95234
904.01419,1.96103
902.52440,1.96974
901.03461,2.00000
899.54482,1.97906
898.05503,1.82904
896.56525,1.67451
895.07546,1.53766
893.58567,1.40083
892.09588,1.12630
890.60609,0.89742
889.11630,0.67372
887.62651,0.50428
886.13673,0.43341
884.64694,0.36257
883.15715,0.27820
881.66736,0.17577
880.17757,0.13599
878.68778,0.11829
877.19800,0.10061
875.70821,0.07231
874.21842,0.03886
872.72863,0.03535
871.23884,0.02605
869.74905,0.02312
868.25927,0.02022
866.76948,0.02132
865.27969,0.00394
863.78990,0.01886
862.30011,0.02540
860.81032,0.03079
859.32053,0.03620
857.83075,0.04433
856.34096,0.07055
854.85117,0.08884
853.36138,0.10457
851.87159,0.10967
850.38180,0.11479
848.89202,0.11854
847.40223,0.13931
845.91244,0.16462
844.42265,0.17823
842.93286,0.19186
841.44307,0.19336
839.95329,0.19789
838.46350,0.23430
836.97371,0.20746
835.48392,0.20647
833.99413,0.20551
832.50434,0.20887
831.01455,0.19245
829.52477,0.19608
828.03498,0.16680
826.54519,0.15336
825.05540,0.13995
823.56561,0.11870
822.07582,0.12331
820.58604,0.11523
819.09625,0.11504
817.60646,0.11487
816.11667,0.10881
814.62688,0.11374
813.13709,0.10751
811.64730,0.11271
810.15752,0.11825
808.66773,0.12382
807.17794,0.13705
805.68815,0.12318
804.19836,0.13797
802.70857,0.14255
801.21879,0.14716
799.72900,0.12414
798.23921,0.10265
796.74942,0.11217
795.25963,0.10106
793.76984,0.08997
792.28006,0.11527
790.79027,0.13779
789.30048,0.15948
787.81069,0.17044
786.32090,0.18184
784.83111,0.19327
783.34132,0.22302
781.85154,0.24806
780.36175,0.31873
778.87196,0.32800
777.38217,0.33729
775.89238,0.34714
774.40259,0.34711
772.91281,0.34173
771.42302,0.32701
769.93323,0.31232
768.44344,0.26117
766.95365,0.22232
765.46386,0.18499
763.97407,0.15630
762.48429,0.13246
760.99450,0.10866
759.50471,0.08627
758.01492,0.09469
756.52513,0.07773
755.03534,0.07414
753.54556,0.07057
752.05577,0.07369
750.56598,0.06436
749.07619,0.04817
747.58640,0.04706
746.09661,0.04598
744.60683,0.04987
743.11704,0.02709
741.62725,0.01704
740.13746,0.01724
738.64767,0.01745
737.15788,0.02942
735.66809,0.01495
734.17831,0.00394
732.68852,0.00765
731.19873,0.01138
729.70894,0.01072
728.21915,0.01697
726.72936,0.01356
725.23958,0.01965
723.74979,0.01575
722.26000,0.01188
720.77021,0.01911
719.28042,0.01173
717.79063,0.00782
716.30084,0.00587
714.81106,0.00394
713.32127,0.02355
711.83148,0.03242
710.34169,0.02087
708.85190,0.02376
707.36211,0.02668
705.87233,0.04017
704.38254,0.04700
702.89275,0.05688
701.40296,0.05806
699.91317,0.05927
698.42338,0.05738
696.93360,0.06562
695.44381,0.10316
693.95402,0.10790
692.46423,0.11267
690.97444,0.12897
689.48465,0.14594
687.99486,0.17456
686.50508,0.18362
685.01529,0.19270
683.52550,0.22676
682.03571,0.24665
680.54592,0.26678
679.05613,0.26885
677.56635,0.27095
676.07656,0.25478
674.58677,0.23992
673.09698,0.22251
671.60719,0.21157
670.11740,0.20066
668.62761,0.16223
667.13783,0.15007
665.64804,0.13794
664.15825,0.12583
662.66846,0.08835
661.17867,0.08619
659.68888,0.06038
658.19910,0.05493
656.70931,0.04950
655.21952,0.03559
653.72973,0.03419
652.23994,0.02679
650.75015,0.02372
649.26037,0.02067
647.77058,0.03098
646.28079,0.02841
644.79100,0.02694
643.30121,0.02764
641.81142,0.02836
640.32163,0.03772
638.83185,0.02967
637.34206,0.02272
635.85227,0.01332
634.36248,0.00394
632.87269,0.01204
631.38290,0.00380
629.89312,0.00355
628.40333,0.00494
626.91354,0.00636
625.42375,0.00058
623.93396,0.00039
622.44417,0.00539
620.95438,0.01041
619.46460,0.00792
617.97481,0.02655
616.48502,0.05790
614.99523,0.07065
613.50544,0.08343
612.01565,0.10000
610.52587,0.12541
609.03608,0.15924
607.54629,0.19277
606.05650,0.22632
604.56671,0.26474
603.07692,0.32212
601.58714,0.34122
600.09735,0.36035
598.60756,0.41500
597.11777,0.43869
595.62798,0.41678
594.13819,0.41717
592.64840,0.41758
591.15862,0.36454
589.66883,0.32336
588.17904,0.25659
586.68925,0.23386
585.19946,0.21115
583.70967,0.13563
582.21989,0.09198
580.73010,0.08150
579.24031,0.07104
577.75052,0.04533
576.26073,0.05407
574.77094,0.06283
573.28115,0.05214
571.79137,0.04148
570.30158,0.02492
568.81179,0.04110
567.32200,0.05278
565.83221,0.06448
564.34242,0.08374
562.85264,0.09204
561.36285,0.12404
559.87306,0.12852
558.38327,0.13303
556.89348,0.13067
555.40369,0.14835
553.91391,0.14948
552.42412,0.15063
550.93433,0.16773
549.44454,0.15215
547.95475,0.17769
546.46496,0.19390
544.97517,0.21013
543.48539,0.21379
541.99560,0.24330
540.50581,0.25260
539.01602,0.26193
537.52623,0.32379
536.03644,0.35684
534.54666,0.41014
533.05687,0.43032
531.56708,0.45053
530.07729,0.49873
528.58750,0.55148
527.09771,0.57111
525.60792,0.59076
524.11814,0.69243
522.62835,0.73279
521.13856,0.80803
519.64877,0.82638
518.15898,0.84476
516.66919,0.87123
515.17941,0.88610
513.68962,0.87194
512.19983,0.85780
510.71004,0.82196
509.22025,0.78743
507.73046,0.72108
506.24068,0.67099
504.75089,0.62093
503.26110,0.51914
501.77131,0.40597
500.28152,0.36157
498.79173,0.31720
497.30194,0.23789
495.81216,0.17925
494.32237,0.17605
492.83258,0.17288
491.34279,0.13433
489.85300,0.10139
488.36321,0.08290
486.87343,0.08154
485.38364,0.08021
483.89385,0.10439
482.40406,0.11698
480.91427,0.11281
479.42448,0.10867
477.93469,0.13488
476.44491,0.18006
474.95512,0.18804
473.46533,0.19604
471.97554,0.19459
470.48575,0.21425
468.99596,0.18187
467.50618,0.17199
466.01639,0.16214
464.52660,0.12250
463.03681,0.08418
461.54702,0.07160
460.05723,0.05905
458.56745,0.03823
457.07766,0.02088
455.58787,0.02087
454.09808,0.02089
452.60829,0.02190
451.11850,0.02724
449.62871,0.02744
448.13893,0.02766
446.64914,0.02661
445.15935,0.01311
443.66956,0.01706
442.17977,0.01049
440.68998,0.00394
439.20020,0.03452
437.71041,0.05350
436.22062,0.04228
434.73083,0.03108
433.24104,0.01850
431.75125,0.03844
430.26146,0.03710
428.77168,0.03578
427.28189,0.03685
425.79210,0.03687
424.30231,0.03229
422.81252,0.02773
421.32273,0.02331
419.83295,0.02471
418.34316,0.03034
416.85337,0.03599
415.36358,0.02154
413.87379,0.03509
412.38400,0.02661
410.89422,0.01815
409.40443,0.02015
407.91464,0.00453
406.42485,0.01381
404.93506,0.02516
403.44527,0.03653
401.95548,0.03210
400.46570,0.01178
398.97591,0.01235
397.48612,0.01295
395.99633,0.02239
394.50654,0.00561
393.01675,0.01036
391.52697,0.01209
390.03718,0.03278
388.54739,0.00937
387.05760,0.00837
385.56781,0.00740
384.07802,0.01957
382.58824,0.01498
381.09845,0.01321
379.60866,0.01147
378.11887,0.01857
376.62908,0.01128
375.13929,0.00563
373.64950,0.00000
372.15972,0.00327
370.66993,0.03777
369.18014,0.02775
367.69035,0.01775
366.20056,0.03369
364.71077,0.03717
363.22099,0.03163
361.73120,0.02612
360.24141,0.02817
358.75162,0.04723
357.26183,0.04276
355.77204,0.03831
354.28225,0.02259
352.79247,0.06241
351.30268,0.07062
349.81289,0.07886
348.32310,0.06323
346.83331,0.05150
345.34352,0.04044
343.85374,0.02940
342.36395,0.00784
340.87416,0.01548
339.38437,0.02970
337.89458,0.04395
336.40479,0.02821
334.91501,0.02152
333.42522,0.02304
331.93543,0.02457
330.44564,0.02463
328.95585,0.00513
327.46606,0.00480
325.97627,0.00450
324.48649,0.02735
322.99670,0.03581
321.50691,0.05452
320.01712,0.07325
318.52733,0.07769
317.03754,0.08968
315.54776,0.07126
314.05797,0.05285
312.56818,0.06234
311.07839,0.06195
309.58860,0.05491
308.09881,0.04790
306.60902,0.02972
305.11924,0.03609
303.62945,0.02000
302.13966,0.00394
300.64987,0.01533
299.16008,0.00394
