1778.52000,0.01322
1777.03021,0.00800
1775.54042,0.00195
1774.05063,0.01007
1772.56085,0.00914
1771.07106,0.00844
1769.58127,0.01832
1768.09148,0.01070
1766.60169,0.00733
1765.11190,0.01116
1763.62212,0.00573
1762.13233,0.01911
1760.64254,0.00928
1759.15275,0.01617
1757.66296,0.00977
1756.17317,0.00973
1754.68339,0.01415
1753.19360,0.00994
1751.70381,0.00870
1750.21402,0.00834
1748.72423,0.00694
1747.23444,0.01528
1745.74465,0.00760
1744.25487,0.01513
1742.76508,0.01297
1741.27529,0.01316
1739.78550,0.01380
1738.29571,0.01890
1736.80592,0.01747
1735.31614,0.01881
1733.82635,0.01194
1732.33656,0.00488
1730.84677,0.01369
1729.35698,0.00879
1727.86719,0.00159
1726.37740,0.00667
1724.88762,0.00649
1723.39783,0.00612
1721.90804,0.00957
1720.41825,0.01010
1718.92846,0.00621
1717.43867,0.00573
1715.94889,0.00901
1714.45910,0.01421
1712.96931,0.01733
1711.47952,0.01372
1709.98973,0.01900
1708.49994,0.01438
1707.01016,0.01347
1705.52037,0.01259
1704.03058,0.01206
1702.54079,0.01323
1701.05100,0.00830
1699.56121,0.00573
1698.07142,0.01322
1696.58164,0.01799
1695.09185,0.02257
1693.60206,0.02422
1692.11227,0.01724
1690.62248,0.02105
1689.13269,0.03143
1687.64291,0.02684
1686.15312,0.02185
1684.66333,0.02703
1683.17354,0.02251
1681.68375,0.02308
1680.19396,0.02495
1678.70417,0.03169
1677.21439,0.03128
1675.72460,0.02815
1674.23481,0.04489
1672.74502,0.04033
1671.25523,0.04192
1669.76544,0.04332
1668.27566,0.05276
1666.78587,0.06434
1665.29608,0.05652
1663.80629,0.06688
1662.31650,0.07537
1660.82671,0.07058
1659.33693,0.08143
1657.84714,0.08239
1656.35735,0.08717
1654.86756,0.06452
1653.37777,0.07758
1651.88798,0.07779
1650.39819,0.08140
1648.90841,0.08820
1647.41862,0.08784
1645.92883,0.08994
1644.43904,0.09206
1642.94925,0.08987
1641.45946,0.08750
1639.96968,0.08621
1638.47989,0.08937
1636.99010,0.09953
1635.50031,0.09282
1634.01052,0.08824
1632.52073,0.08960
1631.03094,0.08697
1629.54116,0.09112
1628.05137,0.09319
1626.56158,0.10330
1625.07179,0.09802
1623.58200,0.10987
1622.09221,0.10929
1620.60243,0.10978
1619.11264,0.11178
1617.62285,0.08973
1616.13306,0.09790
1614.64327,0.08666
1613.15348,0.08411
1611.66370,0.09045
1610.17391,0.09723
1608.68412,0.09517
1607.19433,0.09609
1605.70454,0.09176
1604.21475,0.09135
1602.72496,0.09097
1601.23518,0.08945
1599.74539,0.09176
1598.25560,0.09916
1596.76581,0.10531
1595.27602,0.10896
1593.78623,0.10777
1592.29645,0.09330
1590.80666,0.08899
1589.31687,0.09147
1587.82708,0.09523
1586.33729,0.08656
1584.84750,0.08361
1583.35771,0.07309
1581.86793,0.09236
1580.37814,0.07851
1578.88835,0.08748
1577.39856,0.07917
1575.90877,0.07552
1574.41898,0.06619
1572.92920,0.05140
1571.43941,0.05585
1569.94962,0.05726
1568.45983,0.05869
1566.97004,0.04442
1565.48025,0.04010
1563.99047,0.02608
1562.50068,0.02919
1561.01089,0.02663
1559.52110,0.00868
1558.03131,0.01735
1556.54152,0.01802
1555.05173,0.02379
1553.56195,0.02029
1552.07216,0.01617
1550.58237,0.01758
1549.09258,0.00000
1547.60279,0.01951
1546.11300,0.01815
1544.62322,0.00752
1543.13343,0.00704
1541.64364,0.00321
1540.15385,0.00919
1538.66406,0.01519
1537.17427,0.00506
1535.68448,0.00573
1534.19470,0.02693
1532.70491,0.02177
1531.21512,0.03310
1529.72533,0.02207
1528.23554,0.01613
1526.74575,0.03007
1525.25597,0.04001
1523.76618,0.04111
1522.27639,0.03337
1520.78660,0.03642
1519.29681,0.04921
1517.80702,0.04534
1516.31724,0.03305
1514.82745,0.02374
1513.33766,0.03810
1511.84787,0.05248
1510.35808,0.05000
1508.86829,0.04373
1507.37850,0.03940
1505.88872,0.05599
1504.39893,0.06711
1502.90914,0.06960
1501.41935,0.06874
1499.92956,0.07297
1498.43977,0.06877
1496.94999,0.07432
1495.46020,0.08854
1493.97041,0.10405
1492.48062,0.11663
1490.99083,0.13114
1489.50104,0.13743
1488.01125,0.13879
1486.52147,0.14017
1485.03168,0.15604
1483.54189,0.19494
1482.05210,0.19481
1480.56231,0.21666
1479.07252,0.23389
1477.58274,0.24523
1476.09295,0.24900
1474.60316,0.25046
1473.11337,0.27792
1471.62358,0.27395
1470.13379,0.28710
1468.64401,0.28401
1467.15422,0.28919
1465.66443,0.30357
1464.17464,0.31797
1462.68485,0.36355
1461.19506,0.38655
1459.70527,0.45941
1458.21549,0.50674
1456.72570,0.55642
1455.23591,0.61816
1453.74612,0.66451
1452.25633,0.71764
1450.76654,0.72962
1449.27676,0.76717
1447.78697,0.74225
1446.29718,0.73044
1444.80739,0.70831
1443.31760,0.68621
1441.82781,0.65294
1440.33802,0.61674
1438.84824,0.55670
1437.35845,0.50893
1435.86866,0.50553
1434.37887,0.51671
1432.88908,0.56382
1431.39929,0.62572
1429.90951,0.69315
1428.41972,0.76080
1426.92993,0.84960
1425.44014,0.89217
1423.95035,0.91546
1422.46056,0.93876
1420.97078,0.98416
1419.48099,0.99136
1417.99120,1.00851
1416.50141,0.99422
1415.01162,0.96244
1413.52183,0.90470
1412.03204,0.84362
1410.54226,0.77622
1409.05247,0.71138
1407.56268,0.63558
1406.07289,0.56636
1404.58310,0.53896
1403.09331,0.51159
1401.60353,0.43251
1400.11374,0.41426
1398.62395,0.35698
1397.13416,0.31661
1395.64437,0.26634
1394.15458,0.23003
1392.66479,0.20092
1391.17501,0.17353
1389.68522,0.13919
1388.19543,0.10720
1386.70564,0.09920
1385.21585,0.09122
1383.72606,0.06901
1382.23628,0.05041
1380.74649,0.04388
1379.25670,0.03483
1377.76691,0.02518
1376.27712,0.01766
1374.78733,0.00573
1373.29755,0.01200
1371.80776,0.01831
1370.31797,0.01281
1368.82818,0.01198
1367.33839,0.01117
1365.84860,0.02454
1364.35881,0.03962
1362.86903,0.04289
1361.37924,0.04366
1359.88945,0.06451
1358.39966,0.09299
1356.90987,0.15189
1355.42008,0.18949
1353.93030,0.24020
1352.44051,0.27184
1350.95072,0.30349
1349.46093,0.37117
1347.97114,0.48279
1346.48135,0.57543
1344.99156,0.64339
1343.50178,0.71876
1342.01199,0.76460
1340.52220,0.78555
1339.03241,0.83017
1337.54262,0.86489
1336.05283,0.90427
1334.56305,0.94369
1333.07326,0.98397
1331.58347,0.97951
1330.09368,0.98078
1328.60389,0.96243
1327.11410,0.92406
1325.62432,0.88971
1324.13453,0.86067
1322.64474,0.83651
1321.15495,0.79717
1319.66516,0.76778
1318.17537,0.73841
1316.68558,0.68584
1315.19580,0.64533
1313.70601,0.58247
1312.21622,0.55129
1310.72643,0.50431
1309.23664,0.48311
1307.74685,0.44673
1306.25707,0.41269
1304.76728,0.39864
1303.27749,0.38460
1301.78770,0.32868
1300.29791,0.29939
1298.80812,0.23000
1297.31834,0.20540
1295.82855,0.18315
1294.33876,0.15522
1292.84897,0.13512
1291.35918,0.10829
1289.86939,0.10777
1288.37960,0.10728
1286.88982,0.09129
1285.40003,0.10003
1283.91024,0.08873
1282.42045,0.07430
1280.93066,0.05840
1279.44087,0.07568
1277.95109,0.06427
1276.46130,0.04401
1274.97151,0.04901
1273.48172,0.05403
1271.99193,0.02224
1270.50214,0.02762
1269.01235,0.03641
1267.52257,0.02580
1266.03278,0.02809
1264.54299,0.02513
1263.05320,0.01733
1261.56341,0.01927
1260.07362,0.02124
1258.58384,0.03336
1257.09405,0.03178
1255.60426,0.01397
1254.11447,0.01582
1252.62468,0.00481
1251.13489,0.00636
1249.64511,0.01405
1248.15532,0.00573
1246.66553,0.00648
1245.17574,0.00725
1243.68595,0.01808
1242.19616,0.02661
1240.70637,0.02039
1239.21659,0.02706
1237.72680,0.02806
1236.23701,0.01030
1234.74722,0.01493
1233.25743,0.01389
1231.76764,0.01288
1230.27786,0.02075
1228.78807,0.01303
1227.29828,0.01694
1225.80849,0.02763
1224.31870,0.02716
1222.82891,0.01932
1221.33912,0.02670
1219.84934,0.03010
1218.35955,0.03352
1216.86976,0.04035
1215.37997,0.03832
1213.89018,0.05322
1212.40039,0.07004
1210.91061,0.07020
1209.42082,0.07250
1207.93103,0.06183
1206.44124,0.05119
1204.95145,0.05884
1203.46166,0.06102
1201.97188,0.06513
1200.48209,0.06904
1198.99230,0.07235
1197.50251,0.05351
1196.01272,0.04716
1194.52293,0.04294
1193.03314,0.03874
1191.54336,0.02886
1190.05357,0.02091
1188.56378,0.02608
1187.07399,0.02092
1185.58420,0.02191
1184.09441,0.00540
1182.60463,0.00566
1181.11484,0.00594
1179.62505,0.00573
1178.13526,0.01301
1176.64547,0.00743
1175.15568,0.00884
1173.66589,0.01957
1172.17611,0.01217
1170.68632,0.01165
1169.19653,0.01115
1167.70674,0.00593
1166.21695,0.01699
1164.72716,0.02047
1163.23738,0.03580
1161.74759,0.05221
1160.25780,0.05957
1158.76801,0.05998
1157.27822,0.06041
1155.78843,0.07037
1154.29865,0.07951
1152.80886,0.08149
1151.31907,0.09279
1149.82928,0.10749
1148.33949,0.13002
1146.84970,0.13379
1145.35991,0.13758
1143.87013,0.14267
1142.38034,0.14862
1140.89055,0.15755
1139.40076,0.15552
1137.91097,0.19427
1136.42118,0.20538
1134.93140,0.21019
1133.44161,0.21501
1131.95182,0.22219
1130.46203,0.21291
1128.97224,0.22752
1127.48245,0.25272
1125.99266,0.25090
1124.50288,0.26010
1123.01309,0.25327
1121.52330,0.24646
1120.03351,0.25340
1118.54372,0.24685
1117.05393,0.23674
1115.56415,0.25663
1114.07436,0.26346
1112.58457,0.26281
1111.09478,0.26219
1109.60499,0.23847
1108.11520,0.25721
1106.62542,0.22847
1105.13563,0.21728
1103.64584,0.22575
1102.15605,0.20912
1100.66626,0.20793
1099.17647,0.20676
1097.68668,0.21490
1096.19690,0.21652
1094.70711,0.22809
1093.21732,0.23187
1091.72753,0.21920
1090.23774,0.21480
1088.74795,0.21041
1087.25817,0.19402
1085.76838,0.18990
1084.27859,0.20079
1082.78880,0.19122
1081.29901,0.19202
1079.80922,0.20256
1078.31943,0.21513
1076.82965,0.22773
1075.33986,0.23538
1073.85007,0.23588
1072.36028,0.26069
1070.87049,0.28129
1069.38070,0.30868
1067.89092,0.31339
1066.40113,0.31813
1064.91134,0.38802
1063.42155,0.47631
1061.93176,0.60157
1060.44197,0.68611
1058.95219,0.81290
1057.46240,0.85821
1055.97261,0.90355
1054.48282,0.96791
1052.99303,1.02300
1051.50324,1.04899
1050.01345,1.02263
1048.52367,1.02607
1047.03388,1.02235
1045.54409,1.01866
1044.05430,0.95503
1042.56451,0.86292
1041.07472,0.75879
1039.58494,0.70178
1038.09515,0.63782
1036.60536,0.60957
1035.11557,0.58134
1033.62578,0.49592
1032.13599,0.43691
1030.64620,0.38764
1029.15642,0.32319
1027.66663,0.29846
1026.17684,0.27375
1024.68705,0.22943
1023.19726,0.19062
1021.70747,0.16240
1020.21769,0.13483
1018.72790,0.12333
1017.23811,0.11122
1015.74832,0.09914
1014.25853,0.09827
1012.76874,0.09552
1011.27896,0.09343
1009.78917,0.07912
1008.29938,0.06969
1006.80959,0.06640
1005.31980,0.06314
1003.83001,0.02992
1002.34022,0.01932
1000.85044,0.03598
999.36065,0.05498
997.87086,0.06503
996.38107,0.07511
994.89128,0.08616
993.40149,0.10970
991.91171,0.14254
990.42192,0.14374
988.93213,0.15172
987.44234,0.15656
985.95255,0.16142
984.46276,0.17496
982.97297,0.15791
981.48319,0.14532
979.99340,0.10298
978.50361,0.10162
977.01382,0.10029
975.52403,0.06584
974.03424,0.04977
972.54446,0.04049
971.05467,0.02954
969.56488,0.01968
968.07509,0.01437
966.58530,0.00909
965.09551,0.01154
963.60573,0.02372
962.11594,0.01376
960.62615,0.00573
959.13636,0.00900
957.64657,0.01230
956.15678,0.01805
954.66699,0.02995
953.17721,0.03363
951.68742,0.03502
950.19763,0.04213
948.70784,0.04927
947.21805,0.06867
945.72826,0.06551
944.23848,0.08750
942.74869,0.10613
941.25890,0.10198
939.76911,0.11359
938.27932,0.12522
936.78953,0.15810
935.29974,0.16861
933.80996,0.20090
932.32017,0.22181
930.83038,0.22955
929.34059,0.23731
927.85080,0.24584
926.36101,0.25988
924.87123,0.31046
923.38144,0.34862
921.89165,0.38817
920.40186,0.42775
918.91207,0.51369
917.42228,0.61782
915.93250,0.75321
914.44271,1.01595
912.95292,1.12669
911.46313,1.23746
909.97334,1.51526
908.48355,1.73776
906.99376,1.94889
905.50398,2.00000
904.01419,1.99191
902.52440,1.98384
901.03461,1.99280
899.54482,1.95469
898.05503,1.78274
896.56525,1.60534
895.07546,1.49097
893.58567,1.37664
892.09588,1.08676
890.60609,0.86004
889.11630,0.63102
887.62651,0.48902
886.13673,0.42188
884.64694,0.35477
883.15715,0.26520
881.66736,0.18177
880.17757,0.13806
878.68778,0.13048
877.19800,0.12292
875.70821,0.08520
874.21842,0.06101
872.72863,0.04339
871.23884,0.02938
869.74905,0.03102
868.25927,0.03269
866.76948,0.03353
865.27969,0.03313
863.78990,0.04627
862.30011,0.03853
860.81032,0.05298
859.32053,0.06746
857.83075,0.08090
856.34096,0.09099
854.85117,0.12686
853.36138,0.15959
851.87159,0.16817
850.38180,0.17677
848.89202,0.16565
847.40223,0.19932
845.91244,0.21993
844.42265,0.23855
842.93286,0.25719
841.44307,0.26519
839.95329,0.26351
838.46350,0.28845
836.97371,0.29020
835.48392,0.28975
833.99413,0.28932
832.50434,0.27530
831.01455,0.26890
829.52477,0.26274
828.03498,0.23844
826.54519,0.22177
825.05540,0.20513
823.56561,0.16971
822.07582,0.14931
820.58604,0.14118
819.09625,0.14141
817.60646,0.14167
816.11667,0.14290
814.62688,0.15387
813.13709,0.14649
811.64730,0.15561
810.15752,0.16253
808.66773,0.16947
807.17794,0.17106
805.68815,0.18301
804.19836,0.18908
802.70857,0.18408
801.21879,0.17911
799.72900,0.15105
798.23921,0.14053
796.74942,0.14925
795.25963,0.14659
793.76984,0.14396
792.28006,0.15950
790.79027,0.18837
789.30048,0.22424
787.81069,0.23036
786.32090,0.25212
784.83111,0.27391
783.34132,0.30755
781.85154,0.33551
780.36175,0.37869
778.87196,0.40533
777.38217,0.43198
775.89238,0.46363
774.40259,0.43723
772.91281,0.43937
771.42302,0.41946
769.93323,0.39957
768.44344,0.35807
766.95365,0.29464
765.46386,0.24938
763.97407,0.19402
762.48429,0.17953
760.99450,0.16507
759.50471,0.13237
758.01492,0.12270
756.52513,0.11137
755.03534,0.10556
753.54556,0.09976
752.05577,0.09020
750.56598,0.07157
749.07619,0.06416
747.58640,0.05076
746.09661,0.03738
744.60683,0.04418
743.11704,0.04130
741.62725,0.02704
740.13746,0.02653
738.64767,0.02605
737.15788,0.02453
735.66809,0.00783
734.17831,0.00573
732.68852,0.00812
731.19873,0.01053
729.70894,0.01107
728.21915,0.02219
726.72936,0.00989
725.23958,0.01367
723.74979,0.01293
722.26000,0.01222
720.77021,0.01248
719.28042,0.00875
717.79063,0.01264
716.30084,0.00917
714.81106,0.00573
713.32127,0.01805
711.83148,0.02343
710.34169,0.03074
708.85190,0.02719
707.36211,0.02367
705.87233,0.02514
704.38254,0.03908
702.89275,0.04925
701.40296,0.05290
699.91317,0.05657
698.42338,0.07526
696.93360,0.07391
695.44381,0.08251
693.95402,0.09440
692.46423,0.10632
690.97444,0.11985
689.48465,0.14248
687.99486,0.17041
686.50508,0.17366
685.01529,0.17694
683.52550,0.22943
682.03571,0.25472
680.54592,0.26397
679.05613,0.25816
677.56635,0.25237
676.07656,0.24925
674.58677,0.23242
673.09698,0.20590
671.60719,0.19736
670.11740,0.18884
668.62761,0.15817
667.13783,0.14189
665.64804,0.12795
664.15825,0.11403
662.66846,0.11471
661.17867,0.10612
659.68888,0.06567
658.19910,0.05639
656.70931,0.04714
655.21952,0.05427
653.72973,0.04031
652.23994,0.04010
650.75015,0.03241
649.26037,0.02475
647.77058,0.02862
646.28079,0.05152
644.79100,0.04404
643.30121,0.04724
641.81142,0.05047
640.32163,0.04369
638.83185,0.03757
637.34206,0.03000
635.85227,0.02508
634.36248,0.02020
632.87269,0.00573
631.38290,0.01026
629.89312,0.01503
628.40333,0.01729
626.91354,0.01957
625.42375,0.01766
623.93396,0.00288
622.44417,0.00629
620.95438,0.00973
619.46460,0.03324
617.97481,0.04982
616.48502,0.07317
614.99523,0.08430
613.50544,0.09545
612.01565,0.11909
610.52587,0.14401
609.03608,0.17994
607.54629,0.19932
606.05650,0.21872
604.56671,0.29610
603.07692,0.31861
601.58714,0.34410
600.09735,0.36962
598.60756,0.41205
597.11777,0.44711
595.62798,0.44630
594.13819,0.43127
592.64840,0.41626
591.15862,0.37878
589.66883,0.31790
588.17904,0.25134
586.68925,0.22354
585.19946,0.19577
583.70967,0.15462
582.21989,0.12489
580.73010,0.10289
579.24031,0.08091
577.75052,0.07364
576.26073,0.06870
574.77094,0.06549
573.28115,0.06557
571.79137,0.06567
570.30158,0.06801
568.81179,0.08262
567.32200,0.08734
565.83221,0.09207
564.34242,0.11330
562.85264,0.13814
561.36285,0.16090
559.87306,0.16520
558.38327,0.16953
556.89348,0.15879
555.40369,0.19599
553.91391,0.19395
552.42412,0.19194
550.93433,0.20684
549.44454,0.19684
547.95475,0.22150
546.46496,0.22233
544.97517,0.22317
543.48539,0.26437
541.99560,0.27899
540.50581,0.29997
539.01602,0.32097
537.52623,0.35318
536.03644,0.41033
534.54666,0.42191
533.05687,0.43751
531.56708,0.45314
530.07729,0.49920
528.58750,0.53536
527.09771,0.58146
525.60792,0.62759
524.11814,0.68092
522.62835,0.74462
521.13856,0.79357
519.64877,0.80664
518.15898,0.81974
516.66919,0.88861
515.17941,0.88571
513.68962,0.86763
512.19983,0.84958
510.71004,0.80748
509.22025,0.77659
507.73046,0.71005
506.24068,0.66718
504.75089,0.62433
503.26110,0.51077
501.77131,0.40526
500.28152,0.35742
498.79173,0.30960
497.30194,0.23752
495.81216,0.18130
494.32237,0.16585
492.83258,0.15043
491.34279,0.13144
489.85300,0.10699
488.36321,0.07454
486.87343,0.08444
485.38364,0.09437
483.89385,0.11330
482.40406,0.12296
480.91427,0.12419
479.42448,0.12545
477.93469,0.14659
476.44491,0.17513
474.95512,0.19061
473.46533,0.20611
471.97554,0.21995
470.48575,0.21080
468.99596,0.22130
467.50618,0.20935
466.01639,0.19742
464.52660,0.15817
463.03681,0.11852
461.54702,0.09737
460.05723,0.07624
458.56745,0.05355
457.07766,0.02815
455.58787,0.01881
454.09808,0.00950
452.60829,0.01055
451.11850,0.01396
449.62871,0.01094
448.13893,0.00795
446.64914,0.00573
445.15935,0.00900
443.66956,0.00492
442.17977,0.01774
440.68998,0.03060
439.20020,0.01476
437.71041,0.05025
436.22062,0.04005
434.73083,0.02988
433.24104,0.03292
431.75125,0.03367
430.26146,0.03318
428.77168,0.03270
427.28189,0.07047
425.79210,0.05084
424.30231,0.05012
422.81252,0.04943
421.32273,0.04000
419.83295,0.03925
418.34316,0.04369
416.85337,0.04816
415.36358,0.03270
413.87379,0.04472
412.38400,0.03511
410.89422,0.02553
409.40443,0.03529
407.91464,0.03684
406.42485,0.02892
404.93506,0.03727
403.44527,0.04565
401.95548,0.04307
400.46570,0.04094
398.97591,0.04137
397.48612,0.04182
395.99633,0.03237
394.50654,0.04237
393.01675,0.03329
391.52697,0.02423
390.03718,0.03690
388.54739,0.04242
387.05760,0.03139
385.56781,0.02038
384.07802,0.01711
382.58824,0.02948
381.09845,0.02688
379.60866,0.02431
378.11887,0.01881
376.62908,0.00573
375.13929,0.00873
373.64950,0.01176
372.15972,0.01132
370.66993,0.04005
369.18014,0.03185
367.69035,0.02368
366.20056,0.02186
364.71077,0.04921
363.22099,0.05272
361.73120,0.05625
360.24141,0.04440
358.75162,0.04291
357.26183,0.04525
355.77204,0.04761
354.28225,0.04345
352.79247,0.05515
351.30268,0.05653
349.81289,0.05793
348.32310,0.08173
346.83331,0.07600
345.34352,0.05510
343.85374,0.03421
342.36395,0.02834
340.87416,0.02904
339.38437,0.02438
337.89458,0.01974
336.40479,0.04142
334.91501,0.01793
333.42522,0.02646
331.93543,0.03501
330.44564,0.02067
328.95585,0.00573
327.46606,0.01733
325.97627,0.02895
324.48649,0.05030
322.99670,0.03577
321.50691,0.05506
320.01712,0.07436
318.52733,0.10109
317.03754,0.09215
315.54776,0.09147
314.05797,0.09081
312.56818,0.04500
311.07839,0.06023
309.58860,0.04592
308.09881,0.03163
306.60902,0.03173
305.11924,0.02045
303.62945,0.01574
302.13966,0.00573
300.64987,0.03443
299.16008,0.00573
