1778.52000,0.00125
1777.03021,0.00588
1775.54042,0.00916
1774.05063,0.00790
1772.56085,0.00963
1771.07106,0.00841
1769.58127,0.01042
1768.09148,0.00308
1766.60169,0.00856
1765.11190,0.00927
1763.62212,0.00337
1762.13233,0.00847
1760.64254,0.01725
1759.15275,0.00891
1757.66296,0.01294
1756.17317,0.00579
1754.68339,0.00460
1753.19360,0.00893
1751.70381,0.00322
1750.21402,0.00371
1748.72423,0.00994
1747.23444,0.00179
1745.74465,0.00370
1744.25487,0.00997
1742.76508,0.00712
1741.27529,0.00842
1739.78550,0.00950
1738.29571,0.00696
1736.80592,0.01038
1735.31614,0.00811
1733.82635,0.00472
1732.33656,0.00615
1730.84677,0.00716
1729.35698,0.00704
1727.86719,0.01015
1726.37740,0.00368
1724.88762,0.00592
1723.39783,0.00475
1721.90804,0.00110
1720.41825,0.00551
1718.92846,0.00904
1717.43867,0.00344
1715.94889,0.01764
1714.45910,0.00716
1712.96931,0.00746
1711.47952,0.00435
1709.98973,0.02001
1708.49994,0.00414
1707.01016,0.00602
1705.52037,0.00792
1704.03058,0.00242
1702.54079,0.00654
1701.05100,0.00634
1699.56121,0.01005
1698.07142,0.01127
1696.58164,0.00337
1695.09185,0.01184
1693.60206,0.01095
1692.11227,0.01054
1690.62248,0.02045
1689.13269,0.01826
1687.64291,0.01725
1686.15312,0.02814
1684.66333,0.02099
1683.17354,0.02302
1681.68375,0.01638
1680.19396,0.01548
1678.70417,0.01369
1677.21439,0.02793
1675.72460,0.02527
1674.23481,0.02927
1672.74502,0.03077
1671.25523,0.04511
1669.76544,0.04254
1668.27566,0.04229
1666.78587,0.05624
1665.29608,0.04986
1663.80629,0.04923
1662.31650,0.05913
1660.82671,0.06197
1659.33693,0.07078
1657.84714,0.07070
1656.35735,0.06652
1654.86756,0.06305
1653.37777,0.06327
1651.88798,0.06557
1650.39819,0.06354
1648.90841,0.07504
1647.41862,0.06689
1645.92883,0.06528
1644.43904,0.06369
1642.94925,0.06842
1641.45946,0.07843
1639.96968,0.06857
1638.47989,0.08755
1636.99010,0.08277
1635.50031,0.08190
1634.01052,0.08197
1632.52073,0.07589
1631.03094,0.08401
1629.54116,0.07615
1628.05137,0.08683
1626.56158,0.10280
1625.07179,0.10232
1623.58200,0.09913
1622.09221,0.09367
1620.60243,0.08572
1619.11264,0.09953
1617.62285,0.08888
1616.13306,0.07895
1614.64327,0.07887
1613.15348,0.07927
1611.66370,0.09594
1610.17391,0.08975
1608.68412,0.09457
1607.19433,0.08593
1605.70454,0.09628
1604.21475,0.09397
1602.72496,0.09168
1601.23518,0.09617
1599.74539,0.10044
1598.25560,0.08119
1596.76581,0.09283
1595.27602,0.10496
1593.78623,0.08715
1592.29645,0.08652
1590.80666,0.08270
1589.31687,0.08372
1587.82708,0.08910
1586.33729,0.08239
1584.84750,0.08896
1583.35771,0.07681
1581.86793,0.08984
1580.37814,0.07659
1578.88835,0.08577
1577.39856,0.07349
1575.90877,0.07151
1574.41898,0.07071
1572.92920,0.06261
1571.43941,0.04813
1569.94962,0.05129
1568.45983,0.05447
1566.97004,0.04829
1565.48025,0.03803
1563.99047,0.03945
1562.50068,0.03838
1561.01089,0.02887
1559.52110,0.03608
1558.03131,0.02890
1556.54152,0.04188
1555.05173,0.03407
1553.56195,0.02788
1552.07216,0.02766
1550.58237,0.02930
1549.09258,0.02570
1547.60279,0.00337
1546.11300,0.01691
1544.62322,0.00440
1543.13343,0.02119
1541.64364,0.01903
1540.15385,0.01666
1538.66406,0.01431
1537.17427,0.00993
1535.68448,0.00740
1534.19470,0.02164
1532.70491,0.01601
1531.21512,0.02825
1529.72533,0.03593
1528.23554,0.02763
1526.74575,0.02553
1525.25597,0.04060
1523.76618,0.02963
1522.27639,0.03789
1520.78660,0.03679
1519.29681,0.03984
1517.80702,0.03788
1516.31724,0.03115
1514.82745,0.04776
1513.33766,0.05262
1511.84787,0.05750
1510.35808,0.05040
1508.86829,0.04264
1507.37850,0.04428
1505.88872,0.05623
1504.39893,0.06867
1502.90914,0.06420
1501.41935,0.05610
1499.92956,0.07936
1498.43977,0.07771
1496.94999,0.08592
1495.46020,0.08272
1493.97041,0.09532
1492.48062,0.10383
1490.99083,0.11328
1489.50104,0.11291
1488.01125,0.12493
1486.52147,0.13696
1485.03168,0.14993
1483.54189,0.15424
1482.05210,0.16018
1480.56231,0.19472
1479.07252,0.19932
1477.58274,0.21631
1476.09295,0.21387
1474.60316,0.23365
1473.11337,0.23240
1471.62358,0.24788
1470.13379,0.22999
1468.64401,0.23248
1467.15422,0.25214
1465.66443,0.26874
1464.17464,0.28537
1462.68485,0.33255
1461.19506,0.35756
1459.70527,0.40296
1458.21549,0.47308
1456.72570,0.50457
1455.23591,0.55072
1453.74612,0.61382
1452.25633,0.66551
1450.76654,0.69116
1449.27676,0.68664
1447.78697,0.66179
1446.29718,0.65984
1444.80739,0.64235
1443.31760,0.62490
1441.82781,0.58688
1440.33802,0.55232
1438.84824,0.50246
1437.35845,0.48190
1435.86866,0.46410
1434.37887,0.47377
1432.88908,0.53903
1431.39929,0.57322
1429.90951,0.65660
1428.41972,0.72925
1426.92993,0.79278
1425.44014,0.80557
1423.95035,0.82307
1422.46056,0.84059
1420.97078,0.86053
1419.48099,0.90269
1417.99120,0.94189
1416.50141,0.92601
1415.01162,0.90969
1413.52183,0.86687
1412.03204,0.78931
1410.54226,0.71635
1409.05247,0.63861
1407.56268,0.60481
1406.07289,0.54427
1404.58310,0.50948
1403.09331,0.47472
1401.60353,0.43735
1400.11374,0.39543
1398.62395,0.35673
1397.13416,0.30228
1395.64437,0.26180
1394.15458,0.22638
1392.66479,0.17704
1391.17501,0.16659
1389.68522,0.13696
1388.19543,0.09157
1386.70564,0.07765
1385.21585,0.06375
1383.72606,0.05205
1382.23628,0.03786
1380.74649,0.02415
1379.25670,0.02876
1377.76691,0.02836
1376.27712,0.01426
1374.78733,0.00751
1373.29755,0.00787
1371.80776,0.01534
1370.31797,0.01117
1368.82818,0.00726
1367.33839,0.00337
1365.84860,0.01309
1364.35881,0.01941
1362.86903,0.04336
1361.37924,0.05407
1359.88945,0.08058
1358.39966,0.09568
1356.90987,0.14145
1355.42008,0.16986
1353.93030,0.22323
1352.44051,0.24849
1350.95072,0.27377
1349.46093,0.35693
1347.97114,0.42480
1346.48135,0.51922
1344.99156,0.59948
1343.50178,0.62442
1342.01199,0.66860
1340.52220,0.71052
1339.03241,0.77555
1337.54262,0.82895
1336.05283,0.84087
1334.56305,0.85281
1333.07326,0.88341
1331.58347,0.83857
1330.09368,0.82119
1328.60389,0.82648
1327.11410,0.85970
1325.62432,0.82455
1324.13453,0.78189
1322.64474,0.73834
1321.15495,0.71768
1319.66516,0.69784
1318.17537,0.67803
1316.68558,0.56779
1315.19580,0.53831
1313.70601,0.51457
1312.21622,0.48421
1310.72643,0.45046
1309.23664,0.41444
1307.74685,0.37844
1306.25707,0.36648
1304.76728,0.34871
1303.27749,0.33097
1301.78770,0.28432
1300.29791,0.25873
1298.80812,0.21030
1297.31834,0.18019
1295.82855,0.13638
1294.33876,0.10403
1292.84897,0.09571
1291.35918,0.08650
1289.86939,0.08498
1288.37960,0.08348
1286.88982,0.09699
1285.40003,0.06204
1283.91024,0.05432
1282.42045,0.04549
1280.93066,0.05085
1279.44087,0.04893
1277.95109,0.04588
1276.46130,0.03165
1274.97151,0.03346
1273.48172,0.03529
1271.99193,0.03028
1270.50214,0.02895
1269.01235,0.03268
1267.52257,0.02226
1266.03278,0.01711
1264.54299,0.02252
1263.05320,0.02657
1261.56341,0.02081
1260.07362,0.01508
1258.58384,0.00549
1257.09405,0.00758
1255.60426,0.01449
1254.11447,0.00337
1252.62468,0.02043
1251.13489,0.00848
1249.64511,0.01210
1248.15532,0.00866
1246.66553,0.00752
1245.17574,0.00641
1243.68595,0.00533
1242.19616,0.01466
1240.70637,0.01555
1239.21659,0.00640
1237.72680,0.01557
1236.23701,0.00533
1234.74722,0.01981
1233.25743,0.01773
1231.76764,0.01568
1230.27786,0.01171
1228.78807,0.01005
1227.29828,0.01459
1225.80849,0.01617
1224.31870,0.00498
1222.82891,0.01439
1221.33912,0.01811
1219.84934,0.01968
1218.35955,0.02127
1216.86976,0.02621
1215.37997,0.03665
1213.89018,0.03683
1212.40039,0.05990
1210.91061,0.04709
1209.42082,0.05946
1207.93103,0.05882
1206.44124,0.05820
1204.95145,0.05738
1203.46166,0.05819
1201.97188,0.04827
1200.48209,0.05255
1198.99230,0.04839
1197.50251,0.03534
1196.01272,0.02414
1194.52293,0.02738
1193.03314,0.03063
1191.54336,0.04055
1190.05357,0.03150
1188.56378,0.03231
1187.07399,0.01554
1185.58420,0.00337
1184.09441,0.00928
1182.60463,0.00812
1181.11484,0.00699
1179.62505,0.01549
1178.13526,0.02881
1176.64547,0.00740
1175.15568,0.01299
1173.66589,0.00352
1172.17611,0.00505
1170.68632,0.00420
1169.19653,0.00337
1167.70674,0.02068
1166.21695,0.01447
1164.72716,0.02863
1163.23738,0.02703
1161.74759,0.03255
1160.25780,0.03946
1158.76801,0.03794
1157.27822,0.03644
1155.78843,0.06949
1154.29865,0.06827
1152.80886,0.08331
1151.31907,0.08167
1149.82928,0.09676
1148.33949,0.11118
1146.84970,0.11339
1145.35991,0.11563
1143.87013,0.13150
1142.38034,0.13595
1140.89055,0.14020
1139.40076,0.14699
1137.91097,0.17027
1136.42118,0.19175
1134.93140,0.19415
1133.44161,0.19658
1131.95182,0.21881
1130.46203,0.20905
1128.97224,0.21532
1127.48245,0.22802
1125.99266,0.22588
1124.50288,0.22376
1123.01309,0.22327
1121.52330,0.22280
1120.03351,0.22441
1118.54372,0.22445
1117.05393,0.23411
1115.56415,0.23511
1114.07436,0.22013
1112.58457,0.22072
1111.09478,0.22133
1109.60499,0.22951
1108.11520,0.23154
1106.62542,0.21531
1105.13563,0.21213
1103.64584,0.21263
1102.15605,0.20470
1100.66626,0.19885
1099.17647,0.19302
1097.68668,0.18744
1096.19690,0.19333
1094.70711,0.20564
1093.21732,0.17589
1091.72753,0.17933
1090.23774,0.17571
1088.74795,0.17210
1087.25817,0.16738
1085.76838,0.14690
1084.27859,0.15527
1082.78880,0.16754
1081.29901,0.16154
1079.80922,0.16082
1078.31943,0.17340
1076.82965,0.18599
1075.33986,0.18810
1073.85007,0.20211
1072.36028,0.20129
1070.87049,0.20369
1069.38070,0.19948
1067.89092,0.21760
1066.40113,0.23574
1064.91134,0.31781
1063.42155,0.38139
1061.93176,0.47427
1060.44197,0.55024
1058.95219,0.63768
1057.46240,0.68912
1055.97261,0.74058
1054.48282,0.79699
1052.99303,0.81888
1051.50324,0.85315
1050.01345,0.86481
1048.52367,0.86208
1047.03388,0.85995
1045.54409,0.85784
1044.05430,0.80281
1042.56451,0.70551
1041.07472,0.64435
1039.58494,0.63285
1038.09515,0.56877
1036.60536,0.53960
1035.11557,0.51044
1033.62578,0.44346
1032.13599,0.38588
1030.64620,0.35669
1029.15642,0.30419
1027.66663,0.27470
1026.17684,0.24523
1024.68705,0.20972
1023.19726,0.18270
1021.70747,0.14587
1020.21769,0.13445
1018.72790,0.11665
1017.23811,0.11305
1015.74832,0.10948
1014.25853,0.09541
1012.76874,0.08776
1011.27896,0.08426
1009.78917,0.07987
1008.29938,0.06475
1006.80959,0.05811
1005.31980,0.05150
1003.83001,0.02571
1002.34022,0.00337
1000.85044,0.02625
999.36065,0.03819
997.87086,0.04180
996.38107,0.04543
994.89128,0.06338
993.40149,0.07861
991.91171,0.09066
990.42192,0.10090
988.93213,0.11735
987.44234,0.11552
985.95255,0.11372
984.46276,0.12040
982.97297,0.11110
981.48319,0.09862
979.99340,0.08090
978.50361,0.06767
977.01382,0.05447
975.52403,0.04025
974.03424,0.04299
972.54446,0.01922
971.05467,0.02085
969.56488,0.01451
968.07509,0.00922
966.58530,0.00396
965.09551,0.01475
963.60573,0.03266
962.11594,0.02521
960.62615,0.00337
959.13636,0.01125
957.64657,0.01916
956.15678,0.01314
954.66699,0.02796
953.17721,0.03616
951.68742,0.05446
950.19763,0.06786
948.70784,0.08128
947.21805,0.08204
945.72826,0.07687
944.23848,0.08339
942.74869,0.09749
941.25890,0.12555
939.76911,0.13592
938.27932,0.14631
936.78953,0.14083
935.29974,0.17745
933.80996,0.19626
932.32017,0.23430
930.83038,0.23749
929.34059,0.24071
927.85080,0.26990
926.36101,0.28449
924.87123,0.29315
923.38144,0.36060
921.89165,0.38692
920.40186,0.41326
918.91207,0.50091
917.42228,0.64965
915.93250,0.77005
914.44271,0.94765
912.95292,1.05621
911.46313,1.16479
909.97334,1.41403
908.48355,1.67794
906.99376,1.89682
905.50398,1.97416
904.01419,1.96567
902.52440,1.95719
901.03461,1.99276
899.54482,2.00000
898.05503,1.87325
896.56525,1.67724
895.07546,1.54471
893.58567,1.41221
892.09588,1.10330
890.60609,0.89549
889.11630,0.69365
887.62651,0.49366
886.13673,0.43914
884.64694,0.38465
883.15715,0.27346
881.66736,0.18837
880.17757,0.14401
878.68778,0.12768
877.19800,0.11138
875.70821,0.07395
874.21842,0.05095
872.72863,0.02272
871.23884,0.02401
869.74905,0.02280
868.25927,0.02163
866.76948,0.01750
865.27969,0.01317
863.78990,0.02235
862.30011,0.04208
860.81032,0.04696
859.32053,0.05187
857.83075,0.05246
856.34096,0.07206
854.85117,0.10059
853.36138,0.11475
851.87159,0.11669
850.38180,0.11865
848.89202,0.11801
847.40223,0.15239
845.91244,0.15568
844.42265,0.16769
842.93286,0.17973
841.44307,0.19819
839.95329,0.21484
838.46350,0.22878
836.97371,0.24045
835.48392,0.22459
833.99413,0.20875
832.50434,0.19328
831.01455,0.21511
829.52477,0.18574
828.03498,0.17194
826.54519,0.15497
825.05540,0.13802
823.56561,0.12132
822.07582,0.12020
820.58604,0.11361
819.09625,0.11779
817.60646,0.12200
816.11667,0.11800
814.62688,0.12705
813.13709,0.10686
811.64730,0.09928
810.15752,0.10383
808.66773,0.10841
807.17794,0.09060
805.68815,0.11513
804.19836,0.12870
802.70857,0.12983
801.21879,0.13098
799.72900,0.11283
798.23921,0.11461
796.74942,0.09811
795.25963,0.09707
793.76984,0.09606
792.28006,0.10845
790.79027,0.13893
789.30048,0.15251
787.81069,0.16657
786.32090,0.17151
784.83111,0.17647
783.34132,0.20752
781.85154,0.23723
780.36175,0.28549
778.87196,0.29992
777.38217,0.31438
775.89238,0.35013
774.40259,0.33902
772.91281,0.33525
771.42302,0.32831
769.93323,0.32139
768.44344,0.27173
766.95365,0.22141
765.46386,0.20130
763.97407,0.15651
762.48429,0.14445
760.99450,0.13242
759.50471,0.12018
758.01492,0.10133
756.52513,0.06444
755.03534,0.06050
753.54556,0.05659
752.05577,0.05339
750.56598,0.04769
749.07619,0.03699
747.58640,0.03340
746.09661,0.02984
744.60683,0.02241
743.11704,0.02896
741.62725,0.02501
740.13746,0.01982
738.64767,0.01466
737.15788,0.01010
735.66809,0.00899
734.17831,0.00493
732.68852,0.00707
731.19873,0.00923
729.70894,0.01279
728.21915,0.00700
726.72936,0.00863
725.23958,0.00617
723.74979,0.01093
722.26000,0.01572
720.77021,0.01585
719.28042,0.01600
717.79063,0.00337
716.30084,0.00693
714.81106,0.01052
713.32127,0.02716
711.83148,0.03171
710.34169,0.02850
708.85190,0.02944
707.36211,0.03040
705.87233,0.04053
704.38254,0.05229
702.89275,0.05035
701.40296,0.05015
699.91317,0.04997
698.42338,0.05679
696.93360,0.06684
695.44381,0.09223
693.95402,0.09592
692.46423,0.09963
690.97444,0.12784
689.48465,0.14715
687.99486,0.16901
686.50508,0.18231
685.01529,0.19563
683.52550,0.23128
682.03571,0.23928
680.54592,0.26788
679.05613,0.26769
677.56635,0.26753
676.07656,0.23652
674.58677,0.21674
673.09698,0.20910
671.60719,0.19806
670.11740,0.18704
668.62761,0.18405
667.13783,0.14906
665.64804,0.13926
664.15825,0.12948
662.66846,0.09434
661.17867,0.08300
659.68888,0.07329
658.19910,0.06155
656.70931,0.04983
655.21952,0.04111
653.72973,0.04247
652.23994,0.03334
650.75015,0.02126
649.26037,0.00920
647.77058,0.01798
646.28079,0.01306
644.79100,0.02097
643.30121,0.02536
641.81142,0.02977
640.32163,0.04438
638.83185,0.04324
637.34206,0.03412
635.85227,0.01873
634.36248,0.00337
632.87269,0.00370
631.38290,0.01503
629.89312,0.02272
628.40333,0.01729
626.91354,0.01189
625.42375,0.00067
623.93396,0.00000
622.44417,0.00602
620.95438,0.01206
619.46460,0.01275
617.97481,0.02901
616.48502,0.05811
614.99523,0.07442
613.50544,0.09075
612.01565,0.09682
610.52587,0.14522
609.03608,0.18061
607.54629,0.19498
606.05650,0.20938
604.56671,0.26382
603.07692,0.31440
601.58714,0.32544
600.09735,0.33650
598.60756,0.37023
597.11777,0.40901
595.62798,0.38264
594.13819,0.37196
592.64840,0.36130
591.15862,0.35261
589.66883,0.29501
588.17904,0.23628
586.68925,0.20994
585.19946,0.18363
583.70967,0.13458
582.21989,0.10705
580.73010,0.08641
579.24031,0.06579
577.75052,0.06166
576.26073,0.05253
574.77094,0.04936
573.28115,0.04016
571.79137,0.03098
570.30158,0.03474
568.81179,0.04814
567.32200,0.05332
565.83221,0.05853
564.34242,0.06834
562.85264,0.07817
561.36285,0.10335
559.87306,0.10957
558.38327,0.11581
556.89348,0.10744
555.40369,0.13752
553.91391,0.13514
552.42412,0.13279
550.93433,0.16042
549.44454,0.15354
547.95475,0.15538
546.46496,0.16353
544.97517,0.17170
543.48539,0.21112
541.99560,0.22540
540.50581,0.24096
539.01602,0.25655
537.52623,0.29125
536.03644,0.31432
534.54666,0.34862
533.05687,0.37150
531.56708,0.39441
530.07729,0.43541
528.58750,0.49290
527.09771,0.53292
525.60792,0.57296
524.11814,0.63235
522.62835,0.67461
521.13856,0.73725
519.64877,0.76253
518.15898,0.78783
516.66919,0.80388
515.17941,0.83941
513.68962,0.82075
512.19983,0.80213
510.71004,0.73001
509.22025,0.71600
507.73046,0.64233
506.24068,0.61911
504.75089,0.59592
503.26110,0.47658
501.77131,0.36894
500.28152,0.33495
498.79173,0.30098
497.30194,0.20599
495.81216,0.17230
494.32237,0.15704
492.83258,0.14181
491.34279,0.11575
489.85300,0.07392
488.36321,0.09272
486.87343,0.08776
485.38364,0.08283
483.89385,0.07815
482.40406,0.09636
480.91427,0.08978
479.42448,0.08322
477.93469,0.12255
476.44491,0.15869
474.95512,0.15918
473.46533,0.15970
471.97554,0.17350
470.48575,0.19327
468.99596,0.18700
467.50618,0.15686
466.01639,0.12673
464.52660,0.11985
463.03681,0.06405
461.54702,0.04783
460.05723,0.03164
458.56745,0.02165
457.07766,0.03523
455.58787,0.02677
454.09808,0.01834
452.60829,0.01050
451.11850,0.00337
449.62871,0.02330
448.13893,0.04325
446.64914,0.05122
445.15935,0.02651
443.66956,0.01280
442.17977,0.01330
440.68998,0.01381
439.20020,0.02579
437.71041,0.03276
436.22062,0.03358
434.73083,0.03442
433.24104,0.04489
431.75125,0.02406
430.26146,0.03332
428.77168,0.04260
427.28189,0.03922
425.79210,0.03975
424.30231,0.04179
422.81252,0.04385
421.32273,0.03691
419.83295,0.03410
418.34316,0.04424
416.85337,0.05440
415.36358,0.04435
413.87379,0.02975
412.38400,0.02740
410.89422,0.02508
409.40443,0.01261
407.91464,0.01983
406.42485,0.03645
404.93506,0.03674
403.44527,0.03706
401.95548,0.02928
400.46570,0.02358
398.97591,0.01665
397.48612,0.00974
395.99633,0.02150
394.50654,0.02230
393.01675,0.02678
391.52697,0.03129
390.03718,0.04543
388.54739,0.03832
387.05760,0.02083
385.56781,0.00337
384.07802,0.00936
382.58824,0.02132
381.09845,0.01901
379.60866,0.01673
378.11887,0.02144
376.62908,0.01634
375.13929,0.01299
373.64950,0.00965
372.15972,0.03756
370.66993,0.03713
369.18014,0.02232
367.69035,0.00754
366.20056,0.02602
364.71077,0.00337
363.22099,0.01682
361.73120,0.03030
360.24141,0.04472
358.75162,0.05299
357.26183,0.05110
355.77204,0.04924
354.28225,0.02167
352.79247,0.03712
351.30268,0.04882
349.81289,0.06055
348.32310,0.07104
346.83331,0.05709
345.34352,0.03447
343.85374,0.01187
342.36395,0.01789
340.87416,0.03124
339.38437,0.01729
337.89458,0.00337
336.40479,0.00451
334.91501,0.01895
333.42522,0.01774
331.93543,0.01655
330.44564,0.03861
328.95585,0.04056
327.46606,0.03315
325.97627,0.02578
324.48649,0.01042
322.99670,0.03739
321.50691,0.05250
320.01712,0.06762
318.52733,0.07340
317.03754,0.08469
315.54776,0.08205
314.05797,0.07944
312.56818,0.08897
311.07839,0.07795
309.58860,0.07140
308.09881,0.06488
306.60902,0.07611
305.11924,0.04071
303.62945,0.02203
302.13966,0.00337
300.64987,0.01022
299.16008,0.00337
