1778.52000,0.00181
1777.03021,0.00448
1775.54042,0.01234
1774.05063,0.00556
1772.56085,0.01238
1771.07106,0.01705
1769.58127,0.01332
1768.09148,0.01234
1766.60169,0.01491
1765.11190,0.02212
1763.62212,0.01768
1762.13233,0.02466
1760.64254,0.02081
1759.15275,0.02595
1757.66296,0.01888
1756.17317,0.01347
1754.68339,0.01053
1753.19360,0.01250
1751.70381,0.00364
1750.21402,0.01597
1748.72423,0.01856
1747.23444,0.01818
1745.74465,0.01457
1744.25487,0.01234
1742.76508,0.01308
1741.27529,0.02633
1739.78550,0.02168
1738.29571,0.02194
1736.80592,0.02685
1735.31614,0.02173
1733.82635,0.02695
1732.33656,0.00559
1730.84677,0.00842
1729.35698,0.01806
1727.86719,0.00572
1726.37740,0.01867
1724.88762,0.01997
1723.39783,0.01857
1721.90804,0.01394
1720.41825,0.01042
1718.92846,0.00447
1717.43867,0.01305
1715.94889,0.01513
1714.45910,0.01045
1712.96931,0.01394
1711.47952,0.02261
1709.98973,0.02316
1708.49994,0.01233
1707.01016,0.01795
1705.52037,0.02360
1704.03058,0.01039
1702.54079,0.01351
1701.05100,0.00035
1699.56121,0.00107
1698.07142,0.00181
1696.58164,0.00646
1695.09185,0.01575
1693.60206,0.01367
1692.11227,0.00508
1690.62248,0.02232
1689.13269,0.00537
1687.64291,0.01777
1686.15312,0.02883
1684.66333,0.03042
1683.17354,0.01954
1681.68375,0.01329
1680.19396,0.00653
1678.70417,0.02967
1677.21439,0.02377
1675.72460,0.02224
1674.23481,0.03051
1672.74502,0.02658
1671.25523,0.03191
1669.76544,0.04895
1668.27566,0.04374
1666.78587,0.04887
1665.29608,0.05239
1663.80629,0.05024
1662.31650,0.06821
1660.82671,0.06909
1659.33693,0.07760
1657.84714,0.07989
1656.35735,0.05776
1654.86756,0.05439
1653.37777,0.06870
1651.88798,0.06593
1650.39819,0.07920
1648.90841,0.08109
1647.41862,0.06779
1645.92883,0.07136
1644.43904,0.07495
1642.94925,0.07232
1641.45946,0.06211
1639.96968,0.05572
1638.47989,0.07380
1636.99010,0.07018
1635.50031,0.08994
1634.01052,0.07604
1632.52073,0.08336
1631.03094,0.07820
1629.54116,0.08448
1628.05137,0.09458
1626.56158,0.09737
1625.07179,0.08471
1623.58200,0.08755
1622.09221,0.08335
1620.60243,0.08298
1619.11264,0.08291
1617.62285,0.08421
1616.13306,0.07468
1614.64327,0.07250
1613.15348,0.07497
1611.66370,0.08289
1610.17391,0.08866
1608.68412,0.09799
1607.19433,0.08426
1605.70454,0.09906
1604.21475,0.10099
1602.72496,0.10294
1601.23518,0.09528
1599.74539,0.09280
1598.25560,0.08139
1596.76581,0.08466
1595.27602,0.07764
1593.78623,0.10078
1592.29645,0.08756
1590.80666,0.08387
1589.31687,0.08617
1587.82708,0.08008
1586.33729,0.07755
1584.84750,0.07612
1583.35771,0.08260
1581.86793,0.07552
1580.37814,0.09263
1578.88835,0.08207
1577.39856,0.05226
1575.90877,0.06917
1574.41898,0.04619
1572.92920,0.04278
1571.43941,0.05217
1569.94962,0.05533
1568.45983,0.05851
1566.97004,0.03945
1565.48025,0.02911
1563.99047,0.02965
1562.50068,0.02451
1561.01089,0.02591
1559.52110,0.03332
1558.03131,0.02255
1556.54152,0.02294
1555.05173,0.02009
1553.56195,0.01781
1552.07216,0.02452
1550.58237,0.02093
1549.09258,0.01547
1547.60279,0.02252
1546.11300,0.01303
1544.62322,0.01198
1543.13343,0.00553
1541.64364,0.00181
1540.15385,0.00756
1538.66406,0.01333
1537.17427,0.01464
1535.68448,0.01435
1534.19470,0.01924
1532.70491,0.02009
1531.21512,0.00873
1529.72533,0.02347
1528.23554,0.01597
1526.74575,0.02696
1525.25597,0.03607
1523.76618,0.02646
1522.27639,0.03888
1520.78660,0.04372
1519.29681,0.04152
1517.80702,0.03500
1516.31724,0.03067
1514.82745,0.03886
1513.33766,0.04653
1511.84787,0.05423
1510.35808,0.04837
1508.86829,0.04172
1507.37850,0.03238
1505.88872,0.03583
1504.39893,0.03985
1502.90914,0.05556
1501.41935,0.05637
1499.92956,0.05937
1498.43977,0.05479
1496.94999,0.06055
1495.46020,0.07476
1493.97041,0.08138
1492.48062,0.07581
1490.99083,0.08982
1489.50104,0.08321
1488.01125,0.09591
1486.52147,0.10863
1485.03168,0.11078
1483.54189,0.14039
1482.05210,0.13933
1480.56231,0.15405
1479.07252,0.17829
1477.58274,0.18871
1476.09295,0.17689
1474.60316,0.17215
1473.11337,0.18373
1471.62358,0.19886
1470.13379,0.20587
1468.64401,0.21209
1467.15422,0.22323
1465.66443,0.22813
1464.17464,0.23307
1462.68485,0.28338
1461.19506,0.31932
1459.70527,0.35066
1458.21549,0.39697
1456.72570,0.45226
1455.23591,0.51301
1453.74612,0.55043
1452.25633,0.60199
1450.76654,0.64244
1449.27676,0.62942
1447.78697,0.62511
1446.29718,0.60237
1444.80739,0.58439
1443.31760,0.56644
1441.82781,0.55762
1440.33802,0.49694
1438.84824,0.45015
1437.35845,0.42048
1435.86866,0.39410
1434.37887,0.45056
1432.88908,0.48044
1431.39929,0.51306
1429.90951,0.57910
1428.41972,0.65277
1426.92993,0.72566
1425.44014,0.76814
1423.95035,0.78744
1422.46056,0.80676
1420.97078,0.83656
1419.48099,0.84764
1417.99120,0.86147
1416.50141,0.88563
1415.01162,0.86692
1413.52183,0.80858
1412.03204,0.74375
1410.54226,0.66862
1409.05247,0.63724
1407.56268,0.55999
1406.07289,0.50665
1404.58310,0.48729
1403.09331,0.46795
1401.60353,0.42067
1400.11374,0.38319
1398.62395,0.34464
1397.13416,0.27570
1395.64437,0.23965
1394.15458,0.20199
1392.66479,0.18417
1391.17501,0.14955
1389.68522,0.12907
1388.19543,0.09042
1386.70564,0.08560
1385.21585,0.08081
1383.72606,0.03571
1382.23628,0.04007
1380.74649,0.03059
1379.25670,0.03336
1377.76691,0.02611
1376.27712,0.01454
1374.78733,0.00000
1373.29755,0.00613
1371.80776,0.00521
1370.31797,0.02388
1368.82818,0.01283
1367.33839,0.00181
1365.84860,0.00302
1364.35881,0.02353
1362.86903,0.03510
1361.37924,0.04832
1359.88945,0.07026
1358.39966,0.09657
1356.90987,0.12372
1355.42008,0.15143
1353.93030,0.20687
1352.44051,0.23450
1350.95072,0.26215
1349.46093,0.33096
1347.97114,0.41501
1346.48135,0.47844
1344.99156,0.54489
1343.50178,0.58338
1342.01199,0.63114
1340.52220,0.67864
1339.03241,0.71966
1337.54262,0.77319
1336.05283,0.79130
1334.56305,0.80944
1333.07326,0.84946
1331.58347,0.84144
1330.09368,0.79326
1328.60389,0.78583
1327.11410,0.81590
1325.62432,0.78706
1324.13453,0.76396
1322.64474,0.71155
1321.15495,0.68686
1319.66516,0.66464
1318.17537,0.64244
1316.68558,0.58144
1315.19580,0.51367
1313.70601,0.46900
1312.21622,0.44446
1310.72643,0.43487
1309.23664,0.37860
1307.74685,0.36825
1306.25707,0.32154
1304.76728,0.31422
1303.27749,0.30693
1301.78770,0.25703
1300.29791,0.23946
1298.80812,0.19477
1297.31834,0.17562
1295.82855,0.13641
1294.33876,0.11052
1292.84897,0.09090
1291.35918,0.08516
1289.86939,0.08582
1288.37960,0.08651
1286.88982,0.07025
1285.40003,0.06895
1283.91024,0.06278
1282.42045,0.04850
1280.93066,0.05840
1279.44087,0.05366
1277.95109,0.05384
1276.46130,0.04807
1274.97151,0.04300
1273.48172,0.03795
1271.99193,0.02111
1270.50214,0.03825
1269.01235,0.02526
1267.52257,0.03212
1266.03278,0.01945
1264.54299,0.02826
1263.05320,0.02868
1261.56341,0.02613
1260.07362,0.02361
1258.58384,0.02057
1257.09405,0.02706
1255.60426,0.01673
1254.11447,0.00181
1252.62468,0.02336
1251.13489,0.01154
1249.64511,0.00490
1248.15532,0.00317
1246.66553,0.00649
1245.17574,0.00983
1243.68595,0.02595
1242.19616,0.03206
1240.70637,0.01429
1239.21659,0.01827
1237.72680,0.02091
1236.23701,0.00104
1234.74722,0.01297
1233.25743,0.01039
1231.76764,0.00783
1230.27786,0.02581
1228.78807,0.00633
1227.29828,0.02543
1225.80849,0.00112
1224.31870,0.01038
1222.82891,0.00934
1221.33912,0.00181
1219.84934,0.00908
1218.35955,0.01637
1216.86976,0.02328
1215.37997,0.03211
1213.89018,0.02684
1212.40039,0.04659
1210.91061,0.04300
1209.42082,0.03699
1207.93103,0.04146
1206.44124,0.04596
1204.95145,0.06202
1203.46166,0.04742
1201.97188,0.04751
1200.48209,0.04191
1198.99230,0.04612
1197.50251,0.02972
1196.01272,0.02094
1194.52293,0.01924
1193.03314,0.01757
1191.54336,0.02598
1190.05357,0.01675
1188.56378,0.01216
1187.07399,0.02064
1185.58420,0.00904
1184.09441,0.00181
1182.60463,0.00258
1181.11484,0.00338
1179.62505,0.00923
1178.13526,0.02107
1176.64547,0.01176
1175.15568,0.00193
1173.66589,0.00733
1172.17611,0.00161
1170.68632,0.00170
1169.19653,0.00181
1167.70674,0.02401
1166.21695,0.03238
1164.72716,0.02340
1163.23738,0.02829
1161.74759,0.05521
1160.25780,0.05634
1158.76801,0.05303
1157.27822,0.04973
1155.78843,0.06615
1154.29865,0.07580
1152.80886,0.07923
1151.31907,0.08024
1149.82928,0.09730
1148.33949,0.10922
1146.84970,0.10894
1145.35991,0.10869
1143.87013,0.12530
1142.38034,0.12428
1140.89055,0.13279
1139.40076,0.14785
1137.91097,0.16835
1136.42118,0.17015
1134.93140,0.17807
1133.44161,0.18602
1131.95182,0.19305
1130.46203,0.19249
1128.97224,0.22564
1127.48245,0.21210
1125.99266,0.24556
1124.50288,0.22310
1123.01309,0.21792
1121.52330,0.21275
1120.03351,0.22187
1118.54372,0.21255
1117.05393,0.20596
1115.56415,0.21977
1114.07436,0.21595
1112.58457,0.20794
1111.09478,0.19996
1109.60499,0.20028
1108.11520,0.21910
1106.62542,0.21024
1105.13563,0.21172
1103.64584,0.20046
1102.15605,0.19629
1100.66626,0.19445
1099.17647,0.19263
1097.68668,0.19369
1096.19690,0.18364
1094.70711,0.18774
1093.21732,0.17610
1091.72753,0.16993
1090.23774,0.16337
1088.74795,0.15683
1087.25817,0.14883
1085.76838,0.13297
1084.27859,0.16574
1082.78880,0.14315
1081.29901,0.13985
1079.80922,0.12952
1078.31943,0.14053
1076.82965,0.15157
1075.33986,0.14647
1073.85007,0.16285
1072.36028,0.16024
1070.87049,0.16201
1069.38070,0.16895
1067.89092,0.18529
1066.40113,0.20166
1064.91134,0.25267
1063.42155,0.33004
1061.93176,0.39794
1060.44197,0.48949
1058.95219,0.56829
1057.46240,0.60476
1055.97261,0.64125
1054.48282,0.70193
1052.99303,0.71566
1051.50324,0.75820
1050.01345,0.75948
1048.52367,0.77382
1047.03388,0.77543
1045.54409,0.77706
1044.05430,0.72277
1042.56451,0.65737
1041.07472,0.61453
1039.58494,0.57525
1038.09515,0.53436
1036.60536,0.50544
1035.11557,0.47655
1033.62578,0.43655
1032.13599,0.36127
1030.64620,0.34522
1029.15642,0.30529
1027.66663,0.27489
1026.17684,0.24451
1024.68705,0.22746
1023.19726,0.16781
1021.70747,0.13126
1020.21769,0.12053
1018.72790,0.10195
1017.23811,0.10444
1015.74832,0.10696
1014.25853,0.09008
1012.76874,0.07241
1011.27896,0.07622
1009.78917,0.07027
1008.29938,0.05784
1006.80959,0.04827
1005.31980,0.03874
1003.83001,0.02664
1002.34022,0.00181
1000.85044,0.00292
999.36065,0.03283
997.87086,0.03575
996.38107,0.03869
994.89128,0.04125
993.40149,0.06827
991.91171,0.06952
990.42192,0.08681
988.93213,0.08376
987.44234,0.08631
985.95255,0.08887
984.46276,0.08861
982.97297,0.08946
981.48319,0.09169
979.99340,0.05376
978.50361,0.04599
977.01382,0.03824
975.52403,0.03595
974.03424,0.02228
972.54446,0.01678
971.05467,0.01619
969.56488,0.00857
968.07509,0.00518
966.58530,0.00181
965.09551,0.01721
963.60573,0.00819
962.11594,0.01115
960.62615,0.00978
959.13636,0.00681
957.64657,0.00386
956.15678,0.00909
954.66699,0.02791
953.17721,0.02911
951.68742,0.02001
950.19763,0.04339
948.70784,0.06679
947.21805,0.08003
945.72826,0.06642
944.23848,0.07482
942.74869,0.07374
941.25890,0.10256
939.76911,0.12868
938.27932,0.15483
936.78953,0.14462
935.29974,0.17163
933.80996,0.19975
932.32017,0.20889
930.83038,0.21995
929.34059,0.23104
927.85080,0.24921
926.36101,0.28479
924.87123,0.31224
923.38144,0.33999
921.89165,0.37169
920.40186,0.40343
918.91207,0.51435
917.42228,0.63045
915.93250,0.75770
914.44271,0.93305
912.95292,1.04502
911.46313,1.15700
909.97334,1.39190
908.48355,1.63795
906.99376,1.86719
905.50398,1.88273
904.01419,1.91269
902.52440,1.94268
901.03461,1.97703
899.54482,2.00000
898.05503,1.87662
896.56525,1.66203
895.07546,1.52825
893.58567,1.39449
892.09588,1.10746
890.60609,0.89649
889.11630,0.71025
887.62651,0.53273
886.13673,0.46264
884.64694,0.39257
883.15715,0.27215
881.66736,0.17592
880.17757,0.14001
878.68778,0.12530
877.19800,0.11061
875.70821,0.06608
874.21842,0.04112
872.72863,0.03628
871.23884,0.03472
869.74905,0.01825
868.25927,0.00181
866.76948,0.00265
865.27969,0.00162
863.78990,0.02314
862.30011,0.04823
860.81032,0.04713
859.32053,0.04605
857.83075,0.04242
856.34096,0.05592
854.85117,0.08411
853.36138,0.09033
851.87159,0.09317
850.38180,0.09604
848.89202,0.10369
847.40223,0.13010
845.91244,0.14377
844.42265,0.15651
842.93286,0.16928
841.44307,0.16971
839.95329,0.19244
838.46350,0.20704
836.97371,0.20293
835.48392,0.19776
833.99413,0.19261
832.50434,0.19835
831.01455,0.18646
829.52477,0.18600
828.03498,0.16058
826.54519,0.14727
825.05540,0.13398
823.56561,0.11243
822.07582,0.12486
820.58604,0.08924
819.09625,0.09940
817.60646,0.10959
816.11667,0.10364
814.62688,0.12297
813.13709,0.10350
811.64730,0.09056
810.15752,0.09557
808.66773,0.10061
807.17794,0.10323
805.68815,0.10559
804.19836,0.10799
802.70857,0.11977
801.21879,0.13158
799.72900,0.10580
798.23921,0.09335
796.74942,0.10238
795.25963,0.09636
793.76984,0.09037
792.28006,0.11875
790.79027,0.13901
789.30048,0.15223
787.81069,0.14973
786.32090,0.15933
784.83111,0.16896
783.34132,0.20129
781.85154,0.22495
780.36175,0.28802
778.87196,0.30453
777.38217,0.32107
775.89238,0.31821
774.40259,0.34715
772.91281,0.32289
771.42302,0.31631
769.93323,0.30975
768.44344,0.24808
766.95365,0.20518
765.46386,0.18702
763.97407,0.16371
762.48429,0.14519
760.99450,0.12669
759.50471,0.11323
758.01492,0.09301
756.52513,0.06196
755.03534,0.06962
753.54556,0.07731
752.05577,0.07402
750.56598,0.06099
749.07619,0.03711
747.58640,0.03756
746.09661,0.03804
744.60683,0.03026
743.11704,0.02711
741.62725,0.01531
740.13746,0.00855
738.64767,0.00181
737.15788,0.02525
735.66809,0.02047
734.17831,0.01545
732.68852,0.00814
731.19873,0.00085
729.70894,0.01816
728.21915,0.02111
726.72936,0.00914
725.23958,0.01702
723.74979,0.00986
722.26000,0.00271
720.77021,0.00497
719.28042,0.00181
717.79063,0.00332
716.30084,0.00907
714.81106,0.01483
713.32127,0.02945
711.83148,0.04382
710.34169,0.02862
708.85190,0.02511
707.36211,0.02163
705.87233,0.05076
704.38254,0.04787
702.89275,0.06239
701.40296,0.05615
699.91317,0.04994
698.42338,0.05448
696.93360,0.08077
695.44381,0.11115
693.95402,0.12418
692.46423,0.13723
690.97444,0.13320
689.48465,0.15907
687.99486,0.19256
686.50508,0.20123
685.01529,0.20992
683.52550,0.24756
682.03571,0.29472
680.54592,0.30444
679.05613,0.28987
677.56635,0.27533
676.07656,0.28240
674.58677,0.25908
673.09698,0.21678
671.60719,0.20708
670.11740,0.19741
668.62761,0.19646
667.13783,0.16918
665.64804,0.16176
664.15825,0.15436
662.66846,0.13069
661.17867,0.10460
659.68888,0.09455
658.19910,0.08724
656.70931,0.07996
655.21952,0.06239
653.72973,0.03642
652.23994,0.03111
650.75015,0.03248
649.26037,0.03387
647.77058,0.03243
646.28079,0.02722
644.79100,0.03045
643.30121,0.02868
641.81142,0.02694
640.32163,0.05576
638.83185,0.05013
637.34206,0.02877
635.85227,0.02467
634.36248,0.02060
632.87269,0.00366
631.38290,0.02230
629.89312,0.01273
628.40333,0.00726
626.91354,0.00181
625.42375,0.00231
623.93396,0.00392
622.44417,0.01180
620.95438,0.01971
619.46460,0.02709
617.97481,0.04509
616.48502,0.07561
614.99523,0.08999
613.50544,0.10440
612.01565,0.12982
610.52587,0.14387
609.03608,0.19759
607.54629,0.21399
606.05650,0.23042
604.56671,0.30403
603.07692,0.34563
601.58714,0.36756
600.09735,0.38951
598.60756,0.42412
597.11777,0.42535
595.62798,0.42850
594.13819,0.42217
592.64840,0.41587
591.15862,0.37429
589.66883,0.34630
588.17904,0.27951
586.68925,0.23936
585.19946,0.19923
583.70967,0.15125
582.21989,0.14131
580.73010,0.10954
579.24031,0.07779
577.75052,0.08910
576.26073,0.08198
574.77094,0.06700
573.28115,0.05965
571.79137,0.05233
570.30158,0.05507
568.81179,0.06354
567.32200,0.07218
565.83221,0.08083
564.34242,0.09725
562.85264,0.09930
561.36285,0.10464
559.87306,0.11095
558.38327,0.11728
556.89348,0.12377
555.40369,0.13382
553.91391,0.13954
552.42412,0.14529
550.93433,0.17442
549.44454,0.17153
547.95475,0.16350
546.46496,0.17532
544.97517,0.18716
543.48539,0.21559
541.99560,0.22178
540.50581,0.24551
539.01602,0.26926
537.52623,0.32087
536.03644,0.35459
534.54666,0.39756
533.05687,0.42833
531.56708,0.45913
530.07729,0.46415
528.58750,0.55148
527.09771,0.57855
525.60792,0.60564
524.11814,0.70716
522.62835,0.72507
521.13856,0.80193
519.64877,0.82572
518.15898,0.84954
516.66919,0.86672
515.17941,0.86737
513.68962,0.86220
512.19983,0.85706
510.71004,0.80265
509.22025,0.75424
507.73046,0.68902
506.24068,0.66903
504.75089,0.64907
503.26110,0.47910
501.77131,0.38573
500.28152,0.35145
498.79173,0.31719
497.30194,0.23394
495.81216,0.17787
494.32237,0.17261
492.83258,0.16737
491.34279,0.14260
489.85300,0.08228
488.36321,0.08146
486.87343,0.08256
485.38364,0.08369
483.89385,0.08755
482.40406,0.08818
480.91427,0.08219
479.42448,0.07621
477.93469,0.08914
476.44491,0.12435
474.95512,0.13026
473.46533,0.13620
471.97554,0.16741
470.48575,0.17421
468.99596,0.16989
467.50618,0.16370
466.01639,0.15754
464.52660,0.10849
463.03681,0.06191
461.54702,0.04400
460.05723,0.02612
458.56745,0.00433
457.07766,0.03306
455.58787,0.01743
454.09808,0.00181
452.60829,0.00664
451.11850,0.01232
449.62871,0.00769
448.13893,0.00309
446.64914,0.02215
445.15935,0.01189
443.66956,0.01877
442.17977,0.01495
440.68998,0.01115
439.20020,0.02353
437.71041,0.02398
436.22062,0.03302
434.73083,0.04208
433.24104,0.04994
431.75125,0.02334
430.26146,0.02772
428.77168,0.03212
427.28189,0.04551
425.79210,0.04317
424.30231,0.04262
422.81252,0.04209
421.32273,0.04988
419.83295,0.05415
418.34316,0.04324
416.85337,0.03236
415.36358,0.04159
413.87379,0.02913
412.38400,0.02361
410.89422,0.01812
409.40443,0.00817
407.91464,0.04189
406.42485,0.05038
404.93506,0.04383
403.44527,0.03730
401.95548,0.01762
400.46570,0.01534
398.97591,0.01418
397.48612,0.01304
395.99633,0.03147
394.50654,0.02414
393.01675,0.02415
391.52697,0.02330
390.03718,0.04391
388.54739,0.03360
387.05760,0.02154
385.56781,0.00951
384.07802,0.02506
382.58824,0.00181
381.09845,0.01495
379.60866,0.02810
378.11887,0.02703
376.62908,0.01539
375.13929,0.02197
373.64950,0.02857
372.15972,0.02813
370.66993,0.03125
369.18014,0.02335
367.69035,0.01548
366.20056,0.01320
364.71077,0.02859
363.22099,0.03057
361.73120,0.03257
360.24141,0.04396
358.75162,0.05239
357.26183,0.04780
355.77204,0.04325
354.28225,0.01237
352.79247,0.03311
351.30268,0.04859
349.81289,0.06408
348.32310,0.06046
346.83331,0.08130
345.34352,0.05858
343.85374,0.03588
342.36395,0.03779
340.87416,0.03428
339.38437,0.02157
337.89458,0.00888
336.40479,0.02066
334.91501,0.03001
333.42522,0.02704
331.93543,0.02408
330.44564,0.03433
328.95585,0.05274
327.46606,0.04728
325.97627,0.04184
324.48649,0.02665
322.99670,0.08062
321.50691,0.07433
320.01712,0.06806
318.52733,0.09956
317.03754,0.10475
315.54776,0.10113
314.05797,0.09754
312.56818,0.08868
311.07839,0.06354
309.58860,0.06314
308.09881,0.06277
306.60902,0.07355
305.11924,0.03494
303.62945,0.03097
302.13966,0.01930
300.64987,0.00181
299.16008,0.00181
