1778.52000,0.01143
1777.03021,0.00771
1775.54042,0.02071
1774.05063,0.01615
1772.56085,0.01029
1771.07106,0.01215
1769.58127,0.01206
1768.09148,0.00759
1766.60169,0.01304
1765.11190,0.01082
1763.62212,0.00665
1762.13233,0.01590
1760.64254,0.01331
1759.15275,0.01866
1757.66296,0.02052
1756.17317,0.00788
1754.68339,0.00099
1753.19360,0.00753
1751.70381,0.00772
1750.21402,0.00859
1748.72423,0.00487
1747.23444,0.00513
1745.74465,0.00344
1744.25487,0.01232
1742.76508,0.00649
1741.27529,0.00794
1739.78550,0.00920
1738.29571,0.00586
1736.80592,0.00671
1735.31614,0.01167
1733.82635,0.01335
1732.33656,0.01198
1730.84677,0.00382
1729.35698,0.00118
1727.86719,0.01131
1726.37740,0.01575
1724.88762,0.01054
1723.39783,0.01063
1721.90804,0.01998
1720.41825,0.00495
1718.92846,0.00445
1717.43867,0.01409
1715.94889,0.00968
1714.45910,0.01650
1712.96931,0.00665
1711.47952,0.01057
1709.98973,0.01253
1708.49994,0.01452
1707.01016,0.01510
1705.52037,0.01571
1704.03058,0.01425
1702.54079,0.00380
1701.05100,0.01646
1699.56121,0.00804
1698.07142,0.01283
1696.58164,0.02226
1695.09185,0.00665
1693.60206,0.01722
1692.11227,0.02277
1690.62248,0.01954
1689.13269,0.02403
1687.64291,0.01777
1686.15312,0.02187
1684.66333,0.01236
1683.17354,0.01783
1681.68375,0.02177
1680.19396,0.02750
1678.70417,0.02183
1677.21439,0.01947
1675.72460,0.03121
1674.23481,0.03154
1672.74502,0.03673
1671.25523,0.03710
1669.76544,0.03948
1668.27566,0.04562
1666.78587,0.05068
1665.29608,0.04873
1663.80629,0.05341
1662.31650,0.04953
1660.82671,0.06392
1659.33693,0.05810
1657.84714,0.07122
1656.35735,0.06568
1654.86756,0.05994
1653.37777,0.06917
1651.88798,0.06480
1650.39819,0.05935
1648.90841,0.07260
1647.41862,0.06896
1645.92883,0.06281
1644.43904,0.05669
1642.94925,0.07905
1641.45946,0.08232
1639.96968,0.06890
1638.47989,0.08716
1636.99010,0.09225
1635.50031,0.07165
1634.01052,0.07701
1632.52073,0.07646
1631.03094,0.08362
1629.54116,0.09169
1628.05137,0.08374
1626.56158,0.08658
1625.07179,0.08329
1623.58200,0.08969
1622.09221,0.09282
1620.60243,0.08740
1619.11264,0.08486
1617.62285,0.08565
1616.13306,0.07854
1614.64327,0.07497
1613.15348,0.08660
1611.66370,0.10110
1610.17391,0.08727
1608.68412,0.08292
1607.19433,0.08717
1605.70454,0.07956
1604.21475,0.08517
1602.72496,0.09081
1601.23518,0.09427
1599.74539,0.08786
1598.25560,0.08367
1596.76581,0.09424
1595.27602,0.08658
1593.78623,0.08576
1592.29645,0.08452
1590.80666,0.07694
1589.31687,0.07377
1587.82708,0.08162
1586.33729,0.09059
1584.84750,0.08287
1583.35771,0.07496
1581.86793,0.08269
1580.37814,0.08801
1578.88835,0.08831
1577.39856,0.07764
1575.90877,0.06215
1574.41898,0.06933
1572.92920,0.05697
1571.43941,0.05650
1569.94962,0.06046
1568.45983,0.06443
1566.97004,0.05085
1565.48025,0.03860
1563.99047,0.03232
1562.50068,0.03419
1561.01089,0.03279
1559.52110,0.02987
1558.03131,0.03028
1556.54152,0.01488
1555.05173,0.02390
1553.56195,0.01536
1552.07216,0.01278
1550.58237,0.01330
1549.09258,0.00000
1547.60279,0.00772
1546.11300,0.00161
1544.62322,0.00894
1543.13343,0.01233
1541.64364,0.02147
1540.15385,0.01304
1538.66406,0.00463
1537.17427,0.02316
1535.68448,0.01247
1534.19470,0.00665
1532.70491,0.01571
1531.21512,0.02458
1529.72533,0.02270
1528.23554,0.01073
1526.74575,0.02429
1525.25597,0.03589
1523.76618,0.03894
1522.27639,0.03542
1520.78660,0.03566
1519.29681,0.04230
1517.80702,0.04764
1516.31724,0.03586
1514.82745,0.03619
1513.33766,0.04040
1511.84787,0.04462
1510.35808,0.05448
1508.86829,0.04722
1507.37850,0.06020
1505.88872,0.07122
1504.39893,0.06623
1502.90914,0.07136
1501.41935,0.07675
1499.92956,0.05731
1498.43977,0.07967
1496.94999,0.07457
1495.46020,0.08598
1493.97041,0.09324
1492.48062,0.10491
1490.99083,0.11024
1489.50104,0.11647
1488.01125,0.11866
1486.52147,0.12087
1485.03168,0.12870
1483.54189,0.14360
1482.05210,0.15808
1480.56231,0.19127
1479.07252,0.20382
1477.58274,0.21244
1476.09295,0.22899
1474.60316,0.22094
1473.11337,0.21226
1471.62358,0.22977
1470.13379,0.24553
1468.64401,0.26045
1467.15422,0.25955
1465.66443,0.27100
1464.17464,0.28246
1462.68485,0.33396
1461.19506,0.35778
1459.70527,0.40493
1458.21549,0.46221
1456.72570,0.50963
1455.23591,0.55861
1453.74612,0.59552
1452.25633,0.65465
1450.76654,0.68304
1449.27676,0.69540
1447.78697,0.69349
1446.29718,0.69645
1444.80739,0.68612
1443.31760,0.67583
1441.82781,0.63686
1440.33802,0.56825
1438.84824,0.50713
1437.35845,0.48296
1435.86866,0.47333
1434.37887,0.53693
1432.88908,0.56999
1431.39929,0.60615
1429.90951,0.69334
1428.41972,0.76956
1426.92993,0.83174
1425.44014,0.87701
1423.95035,0.88867
1422.46056,0.90035
1420.97078,0.93514
1419.48099,0.96820
1417.99120,1.01996
1416.50141,1.01459
1415.01162,0.99408
1413.52183,0.91973
1412.03204,0.83617
1410.54226,0.80254
1409.05247,0.73265
1407.56268,0.68588
1406.07289,0.64066
1404.58310,0.60768
1403.09331,0.57471
1401.60353,0.50516
1400.11374,0.43498
1398.62395,0.38857
1397.13416,0.33426
1395.64437,0.28372
1394.15458,0.23957
1392.66479,0.19457
1391.17501,0.17971
1389.68522,0.15102
1388.19543,0.12368
1386.70564,0.10822
1385.21585,0.09280
1383.72606,0.08421
1382.23628,0.05718
1380.74649,0.05677
1379.25670,0.05177
1377.76691,0.04745
1376.27712,0.03106
1374.78733,0.00877
1373.29755,0.01243
1371.80776,0.01305
1370.31797,0.00665
1368.82818,0.01006
1367.33839,0.01350
1365.84860,0.02234
1364.35881,0.05298
1362.86903,0.04472
1361.37924,0.05408
1359.88945,0.07709
1358.39966,0.11309
1356.90987,0.15439
1355.42008,0.19726
1353.93030,0.24586
1352.44051,0.27756
1350.95072,0.30928
1349.46093,0.38895
1347.97114,0.49151
1346.48135,0.56881
1344.99156,0.63646
1343.50178,0.68875
1342.01199,0.72787
1340.52220,0.80878
1339.03241,0.84772
1337.54262,0.91505
1336.05283,0.94415
1334.56305,0.97328
1333.07326,0.98374
1331.58347,0.95202
1330.09368,0.95351
1328.60389,0.94822
1327.11410,0.94339
1325.62432,0.91527
1324.13453,0.87290
1322.64474,0.81560
1321.15495,0.80448
1319.66516,0.76866
1318.17537,0.73287
1316.68558,0.66577
1315.19580,0.60067
1313.70601,0.58198
1312.21622,0.53408
1310.72643,0.51324
1309.23664,0.47615
1307.74685,0.46063
1306.25707,0.41832
1304.76728,0.38493
1303.27749,0.35157
1301.78770,0.31878
1300.29791,0.27326
1298.80812,0.24030
1297.31834,0.19879
1295.82855,0.18456
1294.33876,0.15980
1292.84897,0.10670
1291.35918,0.09870
1289.86939,0.09940
1288.37960,0.10013
1286.88982,0.08494
1285.40003,0.08186
1283.91024,0.07463
1282.42045,0.06435
1280.93066,0.05871
1279.44087,0.05155
1277.95109,0.05409
1276.46130,0.04281
1274.97151,0.03693
1273.48172,0.03107
1271.99193,0.03063
1270.50214,0.02054
1269.01235,0.02585
1267.52257,0.01493
1266.03278,0.01040
1264.54299,0.03645
1263.05320,0.02032
1261.56341,0.02389
1260.07362,0.02748
1258.58384,0.01230
1257.09405,0.02462
1255.60426,0.00882
1254.11447,0.00734
1252.62468,0.00830
1251.13489,0.00665
1249.64511,0.01045
1248.15532,0.01229
1246.66553,0.01218
1245.17574,0.01210
1243.68595,0.00852
1242.19616,0.00972
1240.70637,0.01403
1239.21659,0.01506
1237.72680,0.02733
1236.23701,0.01808
1234.74722,0.00665
1233.25743,0.00923
1231.76764,0.01185
1230.27786,0.00723
1228.78807,0.02119
1227.29828,0.03144
1225.80849,0.00830
1224.31870,0.00937
1222.82891,0.01200
1221.33912,0.01927
1219.84934,0.02062
1218.35955,0.02200
1216.86976,0.02582
1215.37997,0.03099
1213.89018,0.05200
1212.40039,0.05787
1210.91061,0.06135
1209.42082,0.06859
1207.93103,0.06508
1206.44124,0.06159
1204.95145,0.06560
1203.46166,0.06216
1201.97188,0.06072
1200.48209,0.06260
1198.99230,0.05637
1197.50251,0.02862
1196.01272,0.03585
1194.52293,0.03431
1193.03314,0.03279
1191.54336,0.03349
1190.05357,0.02851
1188.56378,0.01761
1187.07399,0.01970
1185.58420,0.00665
1184.09441,0.01278
1182.60463,0.01037
1181.11484,0.00798
1179.62505,0.00738
1178.13526,0.01097
1176.64547,0.01547
1175.15568,0.00614
1173.66589,0.01002
1172.17611,0.01415
1170.68632,0.01039
1169.19653,0.00665
1167.70674,0.01775
1166.21695,0.02008
1164.72716,0.03453
1163.23738,0.03801
1161.74759,0.03403
1160.25780,0.04811
1158.76801,0.05397
1157.27822,0.05985
1155.78843,0.07378
1154.29865,0.08223
1152.80886,0.09687
1151.31907,0.09328
1149.82928,0.09587
1148.33949,0.14069
1146.84970,0.14432
1145.35991,0.14797
1143.87013,0.16428
1142.38034,0.15864
1140.89055,0.14994
1139.40076,0.15731
1137.91097,0.17702
1136.42118,0.21104
1134.93140,0.20386
1133.44161,0.19671
1131.95182,0.21914
1130.46203,0.22336
1128.97224,0.25024
1127.48245,0.23934
1125.99266,0.25791
1124.50288,0.25299
1123.01309,0.25204
1121.52330,0.25112
1120.03351,0.24253
1118.54372,0.24650
1117.05393,0.23158
1115.56415,0.22306
1114.07436,0.23083
1112.58457,0.23753
1111.09478,0.24425
1109.60499,0.24044
1108.11520,0.23907
1106.62542,0.24168
1105.13563,0.21288
1103.64584,0.21049
1102.15605,0.18987
1100.66626,0.19115
1099.17647,0.19245
1097.68668,0.18905
1096.19690,0.19249
1094.70711,0.19880
1093.21732,0.18448
1091.72753,0.18689
1090.23774,0.18009
1088.74795,0.17331
1087.25817,0.18217
1085.76838,0.15213
1084.27859,0.15048
1082.78880,0.17787
1081.29901,0.15495
1079.80922,0.16370
1078.31943,0.16555
1076.82965,0.16742
1075.33986,0.17119
1073.85007,0.16707
1072.36028,0.18099
1070.87049,0.18439
1069.38070,0.19990
1067.89092,0.21785
1066.40113,0.23583
1064.91134,0.31604
1063.42155,0.40903
1061.93176,0.45302
1060.44197,0.52253
1058.95219,0.58876
1057.46240,0.63062
1055.97261,0.67251
1054.48282,0.73596
1052.99303,0.78360
1051.50324,0.80093
1050.01345,0.80114
1048.52367,0.81347
1047.03388,0.80394
1045.54409,0.79444
1044.05430,0.77232
1042.56451,0.72890
1041.07472,0.65692
1039.58494,0.63158
1038.09515,0.56207
1036.60536,0.53424
1035.11557,0.50643
1033.62578,0.42842
1032.13599,0.39550
1030.64620,0.34743
1029.15642,0.28817
1027.66663,0.27269
1026.17684,0.25723
1024.68705,0.20222
1023.19726,0.16460
1021.70747,0.13953
1020.21769,0.12658
1018.72790,0.11849
1017.23811,0.10746
1015.74832,0.09645
1014.25853,0.07194
1012.76874,0.06131
1011.27896,0.06916
1009.78917,0.05703
1008.29938,0.03680
1006.80959,0.03868
1005.31980,0.04058
1003.83001,0.01382
1002.34022,0.00665
1000.85044,0.01319
999.36065,0.03404
997.87086,0.03644
996.38107,0.03888
994.89128,0.06046
993.40149,0.04931
991.91171,0.07005
990.42192,0.08797
988.93213,0.09689
987.44234,0.10045
985.95255,0.10404
984.46276,0.07918
982.97297,0.07523
981.48319,0.07680
979.99340,0.05992
978.50361,0.04857
977.01382,0.03723
975.52403,0.02966
974.03424,0.02080
972.54446,0.02141
971.05467,0.01478
969.56488,0.00665
968.07509,0.00810
966.58530,0.00957
965.09551,0.01172
963.60573,0.01654
962.11594,0.00797
960.62615,0.00602
959.13636,0.01483
957.64657,0.02367
956.15678,0.02989
954.66699,0.02647
953.17721,0.02724
951.68742,0.05706
950.19763,0.05942
948.70784,0.06180
947.21805,0.06487
945.72826,0.06334
944.23848,0.07283
942.74869,0.09333
941.25890,0.11825
939.76911,0.13210
938.27932,0.14597
936.78953,0.16547
935.29974,0.18587
933.80996,0.19157
932.32017,0.21993
930.83038,0.22457
929.34059,0.22924
927.85080,0.24602
926.36101,0.26568
924.87123,0.26844
923.38144,0.33410
921.89165,0.36471
920.40186,0.39535
918.91207,0.48877
917.42228,0.60267
915.93250,0.71878
914.44271,0.90438
912.95292,1.01142
911.46313,1.11848
909.97334,1.38615
908.48355,1.60571
906.99376,1.75450
905.50398,1.83362
904.01419,1.86617
902.52440,1.89874
901.03461,1.95244
899.54482,2.00000
898.05503,1.83655
896.56525,1.67598
895.07546,1.53544
893.58567,1.39493
892.09588,1.12363
890.60609,0.88973
889.11630,0.67125
887.62651,0.49653
886.13673,0.43340
884.64694,0.37030
883.15715,0.26336
881.66736,0.19558
880.17757,0.12914
878.68778,0.11581
877.19800,0.10250
875.70821,0.05591
874.21842,0.02958
872.72863,0.02524
871.23884,0.00665
869.74905,0.01006
868.25927,0.01349
866.76948,0.01255
865.27969,0.03801
863.78990,0.04613
862.30011,0.03976
860.81032,0.03990
859.32053,0.04007
857.83075,0.03993
856.34096,0.05168
854.85117,0.06896
853.36138,0.08493
851.87159,0.10071
850.38180,0.11652
848.89202,0.11850
847.40223,0.15347
845.91244,0.17748
844.42265,0.17360
842.93286,0.16974
841.44307,0.16963
839.95329,0.19286
838.46350,0.20599
836.97371,0.21432
835.48392,0.21156
833.99413,0.20883
832.50434,0.22162
831.01455,0.20058
829.52477,0.18176
828.03498,0.14559
826.54519,0.13419
825.05540,0.12280
823.56561,0.12980
822.07582,0.11197
820.58604,0.09813
819.09625,0.09377
817.60646,0.08942
816.11667,0.08884
814.62688,0.10323
813.13709,0.09171
811.64730,0.09120
810.15752,0.08950
808.66773,0.08783
807.17794,0.11443
805.68815,0.09972
804.19836,0.11054
802.70857,0.11380
801.21879,0.11708
799.72900,0.11455
798.23921,0.11535
796.74942,0.11266
795.25963,0.11032
793.76984,0.10800
792.28006,0.11439
790.79027,0.11597
789.30048,0.13362
787.81069,0.15437
786.32090,0.16041
784.83111,0.16648
783.34132,0.19719
781.85154,0.24947
780.36175,0.29891
778.87196,0.31673
777.38217,0.33456
775.89238,0.33506
774.40259,0.36525
772.91281,0.32930
771.42302,0.32250
769.93323,0.31572
768.44344,0.25807
766.95365,0.20617
765.46386,0.17561
763.97407,0.14925
762.48429,0.13721
760.99450,0.12518
759.50471,0.10373
758.01492,0.10275
756.52513,0.09036
755.03534,0.08217
753.54556,0.07400
752.05577,0.06080
750.56598,0.04784
749.07619,0.03359
747.58640,0.02870
746.09661,0.02384
744.60683,0.02549
743.11704,0.01792
741.62725,0.00665
740.13746,0.01653
738.64767,0.02644
737.15788,0.02406
735.66809,0.01621
734.17831,0.00685
732.68852,0.00861
731.19873,0.01039
729.70894,0.00989
728.21915,0.01667
726.72936,0.00918
725.23958,0.01351
723.74979,0.01468
722.26000,0.01587
720.77021,0.00665
719.28042,0.02105
717.79063,0.01174
716.30084,0.01278
714.81106,0.01385
713.32127,0.01845
711.83148,0.02990
710.34169,0.02884
708.85190,0.02011
707.36211,0.01140
705.87233,0.03723
704.38254,0.04725
702.89275,0.04543
701.40296,0.05297
699.91317,0.06053
698.42338,0.07439
696.93360,0.07816
695.44381,0.10855
693.95402,0.11994
692.46423,0.13136
690.97444,0.13127
689.48465,0.16615
687.99486,0.18676
686.50508,0.19652
685.01529,0.20630
683.52550,0.22017
682.03571,0.27319
680.54592,0.29634
679.05613,0.28951
677.56635,0.28270
676.07656,0.26393
674.58677,0.25244
673.09698,0.24801
671.60719,0.23558
670.11740,0.22317
668.62761,0.19529
667.13783,0.16809
665.64804,0.15422
664.15825,0.14036
662.66846,0.12027
661.17867,0.10130
659.68888,0.07773
658.19910,0.06364
656.70931,0.04958
655.21952,0.04719
653.72973,0.03449
652.23994,0.02819
650.75015,0.02587
649.26037,0.02357
647.77058,0.04878
646.28079,0.03444
644.79100,0.03881
643.30121,0.04518
641.81142,0.05158
640.32163,0.05228
638.83185,0.02772
637.34206,0.02869
635.85227,0.02595
634.36248,0.02323
632.87269,0.01701
631.38290,0.00665
629.89312,0.01196
628.40333,0.00895
626.91354,0.00596
625.42375,0.00672
623.93396,0.00928
622.44417,0.01306
620.95438,0.01687
619.46460,0.02894
617.97481,0.04456
616.48502,0.07404
614.99523,0.09103
613.50544,0.10803
612.01565,0.13737
610.52587,0.16058
609.03608,0.19568
607.54629,0.21992
606.05650,0.24419
604.56671,0.26375
603.07692,0.34379
601.58714,0.36791
600.09735,0.39205
598.60756,0.42886
597.11777,0.43359
595.62798,0.44868
594.13819,0.43653
592.64840,0.42441
591.15862,0.38527
589.66883,0.31450
588.17904,0.24925
586.68925,0.22886
585.19946,0.20850
583.70967,0.17520
582.21989,0.14455
580.73010,0.13020
579.24031,0.11587
577.75052,0.06485
576.26073,0.07783
574.77094,0.05455
573.28115,0.04471
571.79137,0.03490
570.30158,0.06182
568.81179,0.06810
567.32200,0.07770
565.83221,0.08732
564.34242,0.08883
562.85264,0.08839
561.36285,0.11589
559.87306,0.11836
558.38327,0.12084
556.89348,0.14555
555.40369,0.14963
553.91391,0.15196
552.42412,0.15432
550.93433,0.15561
549.44454,0.13713
547.95475,0.15253
546.46496,0.16818
544.97517,0.18385
543.48539,0.21317
541.99560,0.22383
540.50581,0.25133
539.01602,0.27885
537.52623,0.32343
536.03644,0.36892
534.54666,0.40344
533.05687,0.42347
531.56708,0.44353
530.07729,0.47570
528.58750,0.51075
527.09771,0.56473
525.60792,0.61874
524.11814,0.70552
522.62835,0.75715
521.13856,0.81079
519.64877,0.82938
518.15898,0.84800
516.66919,0.88566
515.17941,0.91719
513.68962,0.91521
512.19983,0.91326
510.71004,0.82527
509.22025,0.77006
507.73046,0.70893
506.24068,0.65091
504.75089,0.59291
503.26110,0.46964
501.77131,0.37542
500.28152,0.33958
498.79173,0.30377
497.30194,0.26215
495.81216,0.20342
494.32237,0.18064
492.83258,0.15789
491.34279,0.11835
489.85300,0.09444
488.36321,0.08572
486.87343,0.09494
485.38364,0.10419
483.89385,0.08345
482.40406,0.08911
480.91427,0.09062
479.42448,0.09216
477.93469,0.11877
476.44491,0.15047
474.95512,0.16692
473.46533,0.18338
471.97554,0.18020
470.48575,0.17792
468.99596,0.17742
467.50618,0.16155
466.01639,0.14571
464.52660,0.10263
463.03681,0.09102
461.54702,0.08074
460.05723,0.07049
458.56745,0.04927
457.07766,0.04435
455.58787,0.02867
454.09808,0.01302
452.60829,0.01343
451.11850,0.01322
449.62871,0.01368
448.13893,0.01417
446.64914,0.03007
445.15935,0.00665
443.66956,0.03067
442.17977,0.03130
440.68998,0.03195
439.20020,0.03493
437.71041,0.03443
436.22062,0.04680
434.73083,0.05920
433.24104,0.04535
431.75125,0.05417
430.26146,0.05631
428.77168,0.05847
427.28189,0.04933
425.79210,0.05209
424.30231,0.05003
422.81252,0.04800
421.32273,0.04072
419.83295,0.03323
418.34316,0.02907
416.85337,0.02494
415.36358,0.01467
413.87379,0.02663
412.38400,0.02344
410.89422,0.02028
409.40443,0.01956
407.91464,0.02611
406.42485,0.01533
404.93506,0.02094
403.44527,0.02658
401.95548,0.03389
400.46570,0.02671
398.97591,0.02352
397.48612,0.02035
395.99633,0.02665
394.50654,0.04002
393.01675,0.04626
391.52697,0.05252
390.03718,0.05519
388.54739,0.01544
387.05760,0.01103
385.56781,0.00665
384.07802,0.00735
382.58824,0.01468
381.09845,0.01423
379.60866,0.01379
378.11887,0.00624
376.62908,0.01454
375.13929,0.00748
373.64950,0.00043
372.15972,0.00419
370.66993,0.01412
369.18014,0.02018
367.69035,0.02627
366.20056,0.00842
364.71077,0.01698
363.22099,0.01775
361.73120,0.01855
360.24141,0.02058
358.75162,0.00878
357.26183,0.00602
355.77204,0.00329
354.28225,0.02058
352.79247,0.03284
351.30268,0.05128
349.81289,0.06974
348.32310,0.05217
346.83331,0.01902
345.34352,0.01282
343.85374,0.00665
342.36395,0.02895
340.87416,0.07633
339.38437,0.06098
337.89458,0.04565
336.40479,0.02539
334.91501,0.03946
333.42522,0.03013
331.93543,0.02083
330.44564,0.02573
328.95585,0.02648
327.46606,0.01758
325.97627,0.00870
324.48649,0.04135
322.99670,0.06104
321.50691,0.06537
320.01712,0.06973
318.52733,0.07213
317.03754,0.08466
315.54776,0.05556
314.05797,0.02649
312.56818,0.02656
311.07839,0.05040
309.58860,0.03701
308.09881,0.02363
306.60902,0.06315
305.11924,0.03675
303.62945,0.02169
302.13966,0.00665
300.64987,0.01004
299.16008,0.00665
