1778.52000,0.00729
1777.03021,0.00631
1775.54042,0.00351
1774.05063,0.01201
1772.56085,0.01456
1771.07106,0.01021
1769.58127,0.00728
1768.09148,0.00667
1766.60169,0.00839
1765.11190,0.00598
1763.62212,0.00498
1762.13233,0.01575
1760.64254,0.00559
1759.15275,0.00788
1757.66296,0.01043
1756.17317,0.00656
1754.68339,0.01307
1753.19360,0.01016
1751.70381,0.00682
1750.21402,0.00650
1748.72423,0.00573
1747.23444,0.01444
1745.74465,0.01510
1744.25487,0.01073
1742.76508,0.01858
1741.27529,0.01863
1739.78550,0.02353
1738.29571,0.01649
1736.80592,0.01154
1735.31614,0.01703
1733.82635,0.01265
1732.33656,-0.00000
1730.84677,0.00902
1729.35698,0.00586
1727.86719,0.01607
1726.37740,0.00812
1724.88762,0.01079
1723.39783,0.01808
1721.90804,0.00790
1720.41825,0.01202
1718.92846,0.01224
1717.43867,0.00559
1715.94889,0.01105
1714.45910,0.01608
1712.96931,0.00847
1711.47952,0.01097
1709.98973,0.01073
1708.49994,0.01558
1707.01016,0.00837
1705.52037,0.00118
1704.03058,0.00634
1702.54079,0.00944
1701.05100,0.00359
1699.56121,0.01019
1698.07142,0.01475
1696.58164,0.00966
1695.09185,0.01657
1693.60206,0.01682
1692.11227,0.00559
1690.62248,0.01555
1689.13269,0.01725
1687.64291,0.01667
1686.15312,0.01543
1684.66333,0.01904
1683.17354,0.01738
1681.68375,0.01506
1680.19396,0.01598
1678.70417,0.02199
1677.21439,0.02871
1675.72460,0.03247
1674.23481,0.02128
1672.74502,0.03130
1671.25523,0.03605
1669.76544,0.03967
1668.27566,0.05436
1666.78587,0.06010
1665.29608,0.05988
1663.80629,0.06244
1662.31650,0.06250
1660.82671,0.05267
1659.33693,0.06682
1657.84714,0.06902
1656.35735,0.07147
1654.86756,0.07556
1653.37777,0.06217
1651.88798,0.07022
1650.39819,0.07322
1648.90841,0.07257
1647.41862,0.06987
1645.92883,0.07824
1644.43904,0.08664
1642.94925,0.08792
1641.45946,0.08002
1639.96968,0.07790
1638.47989,0.08593
1636.99010,0.09237
1635.50031,0.08940
1634.01052,0.08599
1632.52073,0.08790
1631.03094,0.09190
1629.54116,0.09064
1628.05137,0.08479
1626.56158,0.10867
1625.07179,0.10194
1623.58200,0.10561
1622.09221,0.09157
1620.60243,0.08584
1619.11264,0.09487
1617.62285,0.09103
1616.13306,0.08813
1614.64327,0.08457
1613.15348,0.08518
1611.66370,0.09916
1610.17391,0.09429
1608.68412,0.09819
1607.19433,0.08945
1605.70454,0.09869
1604.21475,0.09437
1602.72496,0.09008
1601.23518,0.09617
1599.74539,0.09791
1598.25560,0.09760
1596.76581,0.10699
1595.27602,0.09176
1593.78623,0.09912
1592.29645,0.08786
1590.80666,0.08836
1589.31687,0.08727
1587.82708,0.08575
1586.33729,0.08379
1584.84750,0.09336
1583.35771,0.08201
1581.86793,0.08081
1580.37814,0.08032
1578.88835,0.09161
1577.39856,0.07897
1575.90877,0.07118
1574.41898,0.07931
1572.92920,0.07434
1571.43941,0.06157
1569.94962,0.06205
1568.45983,0.06257
1566.97004,0.04480
1565.48025,0.03580
1563.99047,0.02107
1562.50068,0.03607
1561.01089,0.02875
1559.52110,0.03320
1558.03131,0.02064
1556.54152,0.02353
1555.05173,0.02068
1553.56195,0.01165
1552.07216,0.01484
1550.58237,0.01436
1549.09258,0.01023
1547.60279,0.02316
1546.11300,0.01194
1544.62322,0.01410
1543.13343,0.00983
1541.64364,0.00559
1540.15385,0.01350
1538.66406,0.02143
1537.17427,0.00959
1535.68448,0.00767
1534.19470,0.01705
1532.70491,0.03659
1531.21512,0.02484
1529.72533,0.02348
1528.23554,0.01178
1526.74575,0.02934
1525.25597,0.04186
1523.76618,0.03115
1522.27639,0.04878
1520.78660,0.05032
1519.29681,0.04797
1517.80702,0.03160
1516.31724,0.03160
1514.82745,0.03554
1513.33766,0.04192
1511.84787,0.04832
1510.35808,0.05118
1508.86829,0.05890
1507.37850,0.04660
1505.88872,0.04838
1504.39893,0.07183
1502.90914,0.05017
1501.41935,0.06744
1499.92956,0.06471
1498.43977,0.06315
1496.94999,0.06967
1495.46020,0.07806
1493.97041,0.09868
1492.48062,0.09791
1490.99083,0.10153
1489.50104,0.11439
1488.01125,0.11761
1486.52147,0.12084
1485.03168,0.14091
1483.54189,0.15755
1482.05210,0.17237
1480.56231,0.16281
1479.07252,0.20853
1477.58274,0.23447
1476.09295,0.22198
1474.60316,0.20768
1473.11337,0.22126
1471.62358,0.25628
1470.13379,0.22915
1468.64401,0.24925
1467.15422,0.24428
1465.66443,0.26155
1464.17464,0.27884
1462.68485,0.31745
1461.19506,0.34181
1459.70527,0.39106
1458.21549,0.44839
1456.72570,0.49263
1455.23591,0.52192
1453.74612,0.59912
1452.25633,0.66047
1450.76654,0.66312
1449.27676,0.67501
1447.78697,0.67402
1446.29718,0.65810
1444.80739,0.63702
1443.31760,0.61596
1441.82781,0.60471
1440.33802,0.54652
1438.84824,0.48996
1437.35845,0.44954
1435.86866,0.43862
1434.37887,0.48136
1432.88908,0.51331
1431.39929,0.56301
1429.90951,0.62932
1428.41972,0.69288
1426.92993,0.77972
1425.44014,0.78001
1423.95035,0.80934
1422.46056,0.83869
1420.97078,0.87037
1419.48099,0.89609
1417.99120,0.90640
1416.50141,0.93423
1415.01162,0.90707
1413.52183,0.85574
1412.03204,0.79800
1410.54226,0.73544
1409.05247,0.64943
1407.56268,0.59198
1406.07289,0.55298
1404.58310,0.52103
1403.09331,0.48910
1401.60353,0.43129
1400.11374,0.40160
1398.62395,0.35097
1397.13416,0.30337
1395.64437,0.26706
1394.15458,0.20799
1392.66479,0.18993
1391.17501,0.17833
1389.68522,0.14052
1388.19543,0.10617
1386.70564,0.09557
1385.21585,0.08499
1383.72606,0.05072
1382.23628,0.04157
1380.74649,0.02692
1379.25670,0.03071
1377.76691,0.02624
1376.27712,0.01557
1374.78733,0.01483
1373.29755,0.01089
1371.80776,0.00559
1370.31797,0.02020
1368.82818,0.01469
1367.33839,0.00920
1365.84860,0.00776
1364.35881,0.02316
1362.86903,0.03144
1361.37924,0.03514
1359.88945,0.06373
1358.39966,0.07807
1356.90987,0.11661
1355.42008,0.17014
1353.93030,0.21056
1352.44051,0.23121
1350.95072,0.25189
1349.46093,0.33498
1347.97114,0.42432
1346.48135,0.50331
1344.99156,0.56138
1343.50178,0.63214
1342.01199,0.66308
1340.52220,0.70073
1339.03241,0.74462
1337.54262,0.81202
1336.05283,0.83753
1334.56305,0.86307
1333.07326,0.90521
1331.58347,0.89442
1330.09368,0.91197
1328.60389,0.87314
1327.11410,0.85068
1325.62432,0.84482
1324.13453,0.82194
1322.64474,0.80139
1321.15495,0.75232
1319.66516,0.72479
1318.17537,0.69729
1316.68558,0.62641
1315.19580,0.56247
1313.70601,0.51535
1312.21622,0.49382
1310.72643,0.45688
1309.23664,0.42963
1307.74685,0.40955
1306.25707,0.37223
1304.76728,0.35173
1303.27749,0.33126
1301.78770,0.29769
1300.29791,0.25078
1298.80812,0.20713
1297.31834,0.17524
1295.82855,0.16225
1294.33876,0.13755
1292.84897,0.10320
1291.35918,0.10111
1289.86939,0.09743
1288.37960,0.09377
1286.88982,0.08921
1285.40003,0.07501
1283.91024,0.06475
1282.42045,0.06027
1280.93066,0.04821
1279.44087,0.06288
1277.95109,0.04627
1276.46130,0.03152
1274.97151,0.03648
1273.48172,0.04146
1271.99193,0.02264
1270.50214,0.02203
1269.01235,0.02950
1267.52257,0.02272
1266.03278,0.01965
1264.54299,0.02028
1263.05320,0.02279
1261.56341,0.01748
1260.07362,0.01220
1258.58384,0.00695
1257.09405,0.00931
1255.60426,0.01147
1254.11447,0.01320
1252.62468,0.01425
1251.13489,0.00796
1249.64511,0.01851
1248.15532,0.00559
1246.66553,0.01149
1245.17574,0.01742
1243.68595,0.02487
1242.19616,0.03326
1240.70637,0.02763
1239.21659,0.03054
1237.72680,0.01414
1236.23701,0.00559
1234.74722,0.01823
1233.25743,0.01523
1231.76764,0.01226
1230.27786,0.01852
1228.78807,0.02504
1227.29828,0.02836
1225.80849,0.02226
1224.31870,0.01204
1222.82891,0.01243
1221.33912,0.02644
1219.84934,0.02941
1218.35955,0.03241
1216.86976,0.03336
1215.37997,0.04976
1213.89018,0.05467
1212.40039,0.06168
1210.91061,0.05605
1209.42082,0.05527
1207.93103,0.05349
1206.44124,0.05172
1204.95145,0.06599
1203.46166,0.05357
1201.97188,0.05959
1200.48209,0.06471
1198.99230,0.04523
1197.50251,0.04487
1196.01272,0.03464
1194.52293,0.03422
1193.03314,0.03382
1191.54336,0.01837
1190.05357,0.02850
1188.56378,0.02460
1187.07399,0.03731
1185.58420,0.01204
1184.09441,0.01490
1182.60463,0.01559
1181.11484,0.01630
1179.62505,0.00955
1178.13526,0.02931
1176.64547,0.02353
1175.15568,0.03067
1173.66589,0.02494
1172.17611,0.02476
1170.68632,0.01516
1169.19653,0.00559
1167.70674,0.04330
1166.21695,0.03730
1164.72716,0.03638
1163.23738,0.05414
1161.74759,0.06225
1160.25780,0.05703
1158.76801,0.06714
1157.27822,0.07728
1155.78843,0.08986
1154.29865,0.08980
1152.80886,0.10219
1151.31907,0.10011
1149.82928,0.12522
1148.33949,0.14229
1146.84970,0.14810
1145.35991,0.15394
1143.87013,0.17062
1142.38034,0.16269
1140.89055,0.15548
1139.40076,0.16717
1137.91097,0.20282
1136.42118,0.21686
1134.93140,0.22126
1133.44161,0.22567
1131.95182,0.24369
1130.46203,0.23388
1128.97224,0.25610
1127.48245,0.27051
1125.99266,0.28057
1124.50288,0.27615
1123.01309,0.28096
1121.52330,0.28579
1120.03351,0.24530
1118.54372,0.26008
1117.05393,0.27857
1115.56415,0.27613
1114.07436,0.26658
1112.58457,0.26315
1111.09478,0.25975
1109.60499,0.25188
1108.11520,0.26361
1106.62542,0.23852
1105.13563,0.23141
1103.64584,0.22341
1102.15605,0.22924
1100.66626,0.23522
1099.17647,0.24121
1097.68668,0.24597
1096.19690,0.23486
1094.70711,0.22515
1093.21732,0.22399
1091.72753,0.21365
1090.23774,0.21126
1088.74795,0.20891
1087.25817,0.19863
1085.76838,0.18700
1084.27859,0.19657
1082.78880,0.18959
1081.29901,0.17941
1079.80922,0.19688
1078.31943,0.20459
1076.82965,0.21232
1075.33986,0.21835
1073.85007,0.22464
1072.36028,0.22910
1070.87049,0.24004
1069.38070,0.25722
1067.89092,0.26187
1066.40113,0.26654
1064.91134,0.32017
1063.42155,0.40605
1061.93176,0.49104
1060.44197,0.60276
1058.95219,0.69263
1057.46240,0.74396
1055.97261,0.79531
1054.48282,0.89998
1052.99303,0.92686
1051.50324,0.93074
1050.01345,0.93141
1048.52367,0.96872
1047.03388,0.97658
1045.54409,0.98447
1044.05430,0.92239
1042.56451,0.81036
1041.07472,0.75362
1039.58494,0.71739
1038.09515,0.62732
1036.60536,0.59966
1035.11557,0.57202
1033.62578,0.51309
1032.13599,0.45350
1030.64620,0.39647
1029.15642,0.32840
1027.66663,0.30238
1026.17684,0.27638
1024.68705,0.23556
1023.19726,0.20028
1021.70747,0.17355
1020.21769,0.14569
1018.72790,0.14065
1017.23811,0.13437
1015.74832,0.12811
1014.25853,0.10333
1012.76874,0.11059
1011.27896,0.09968
1009.78917,0.09363
1008.29938,0.07747
1006.80959,0.06663
1005.31980,0.05582
1003.83001,0.02684
1002.34022,0.01745
1000.85044,0.05022
999.36065,0.04779
997.87086,0.04734
996.38107,0.04691
994.89128,0.05952
993.40149,0.07721
991.91171,0.08296
990.42192,0.10323
988.93213,0.09728
987.44234,0.10345
985.95255,0.10963
984.46276,0.12148
982.97297,0.12000
981.48319,0.09483
979.99340,0.08488
978.50361,0.07518
977.01382,0.06551
975.52403,0.05493
974.03424,0.04531
972.54446,0.02373
971.05467,0.02152
969.56488,0.02140
968.07509,0.01348
966.58530,0.00559
965.09551,0.01016
963.60573,0.01822
962.11594,0.00788
960.62615,0.00493
959.13636,0.01186
957.64657,0.01881
956.15678,0.01658
954.66699,0.01967
953.17721,0.01219
951.68742,0.03903
950.19763,0.05048
948.70784,0.06195
947.21805,0.08910
945.72826,0.06908
944.23848,0.08591
942.74869,0.10301
941.25890,0.12565
939.76911,0.13875
938.27932,0.15189
936.78953,0.16078
935.29974,0.18513
933.80996,0.22263
932.32017,0.23965
930.83038,0.24542
929.34059,0.25121
927.85080,0.26923
926.36101,0.26724
924.87123,0.29130
923.38144,0.33172
921.89165,0.36906
920.40186,0.40642
918.91207,0.48467
917.42228,0.59081
915.93250,0.75983
914.44271,0.95097
912.95292,1.06167
911.46313,1.17239
909.97334,1.44074
908.48355,1.66559
906.99376,1.88978
905.50398,1.95973
904.01419,1.97985
902.52440,2.00000
901.03461,1.97032
899.54482,1.97889
898.05503,1.83529
896.56525,1.71405
895.07546,1.58432
893.58567,1.45460
892.09588,1.15684
890.60609,0.90676
889.11630,0.67143
887.62651,0.49623
886.13673,0.44192
884.64694,0.38764
883.15715,0.26385
881.66736,0.17900
880.17757,0.14850
878.68778,0.12931
877.19800,0.11014
875.70821,0.07650
874.21842,0.03228
872.72863,0.02585
871.23884,0.01415
869.74905,0.01444
868.25927,0.01476
866.76948,0.00980
865.27969,0.02260
863.78990,0.02161
862.30011,0.02800
860.81032,0.03592
859.32053,0.04386
857.83075,0.05655
856.34096,0.06626
854.85117,0.09673
853.36138,0.10902
851.87159,0.10695
850.38180,0.10490
848.89202,0.10254
847.40223,0.14578
845.91244,0.16418
844.42265,0.17673
842.93286,0.18931
841.44307,0.18361
839.95329,0.21039
838.46350,0.25263
836.97371,0.23778
835.48392,0.22561
833.99413,0.21346
832.50434,0.20514
831.01455,0.19523
829.52477,0.20215
828.03498,0.18630
826.54519,0.16632
825.05540,0.14638
823.56561,0.12967
822.07582,0.13165
820.58604,0.10164
819.09625,0.10872
817.60646,0.11583
816.11667,0.10823
814.62688,0.11700
813.13709,0.10138
811.64730,0.09845
810.15752,0.10292
808.66773,0.10741
807.17794,0.11698
805.68815,0.11484
804.19836,0.12401
802.70857,0.12605
801.21879,0.12813
799.72900,0.11365
798.23921,0.11324
796.74942,0.10387
795.25963,0.09591
793.76984,0.08797
792.28006,0.10883
790.79027,0.14722
789.30048,0.15846
787.81069,0.15799
786.32090,0.16295
784.83111,0.16793
783.34132,0.21426
781.85154,0.25878
780.36175,0.29595
778.87196,0.32048
777.38217,0.34504
775.89238,0.35741
774.40259,0.32883
772.91281,0.32790
771.42302,0.31537
769.93323,0.30286
768.44344,0.25825
766.95365,0.22035
765.46386,0.18569
763.97407,0.16326
762.48429,0.14937
760.99450,0.13551
759.50471,0.11200
758.01492,0.07861
756.52513,0.06735
755.03534,0.07407
753.54556,0.08082
752.05577,0.06595
750.56598,0.05616
749.07619,0.03236
747.58640,0.03413
746.09661,0.03593
744.60683,0.04305
743.11704,0.02348
741.62725,0.02075
740.13746,0.01435
738.64767,0.00798
737.15788,0.01038
735.66809,0.02501
734.17831,0.00559
732.68852,0.00836
731.19873,0.01115
729.70894,0.01903
728.21915,0.01128
726.72936,0.01576
725.23958,0.01450
723.74979,0.01592
722.26000,0.01736
720.77021,0.01525
719.28042,0.01939
717.79063,0.00559
716.30084,0.00955
714.81106,0.01354
713.32127,0.01847
711.83148,0.02711
710.34169,0.03047
708.85190,0.03202
707.36211,0.03359
705.87233,0.03519
704.38254,0.04118
702.89275,0.04950
701.40296,0.05382
699.91317,0.05815
698.42338,0.06631
696.93360,0.07197
695.44381,0.08823
693.95402,0.10303
692.46423,0.11784
690.97444,0.13810
689.48465,0.15146
687.99486,0.16992
686.50508,0.17816
685.01529,0.18642
683.52550,0.23303
682.03571,0.24652
680.54592,0.25289
679.05613,0.25998
677.56635,0.26709
676.07656,0.24268
674.58677,0.24201
673.09698,0.21374
671.60719,0.20609
670.11740,0.19847
668.62761,0.16405
667.13783,0.14877
665.64804,0.13534
664.15825,0.12195
662.66846,0.10074
661.17867,0.08832
659.68888,0.06808
658.19910,0.06077
656.70931,0.05347
655.21952,0.04229
653.72973,0.03573
652.23994,0.02805
650.75015,0.03052
649.26037,0.03302
647.77058,0.02863
646.28079,0.03670
644.79100,0.04364
643.30121,0.03772
641.81142,0.03181
640.32163,0.02823
638.83185,0.02859
637.34206,0.02828
635.85227,0.02524
634.36248,0.02221
632.87269,0.00839
631.38290,0.01704
629.89312,0.01834
628.40333,0.02059
626.91354,0.02286
625.42375,0.00559
623.93396,0.01386
622.44417,0.01755
620.95438,0.02126
619.46460,0.03167
617.97481,0.04073
616.48502,0.07398
614.99523,0.08182
613.50544,0.08968
612.01565,0.10758
610.52587,0.13955
609.03608,0.18766
607.54629,0.20506
606.05650,0.22247
604.56671,0.27963
603.07692,0.31679
601.58714,0.33785
600.09735,0.35893
598.60756,0.41204
597.11777,0.41590
595.62798,0.42554
594.13819,0.41115
592.64840,0.39677
591.15862,0.35031
589.66883,0.31077
588.17904,0.26550
586.68925,0.23327
585.19946,0.20106
583.70967,0.15379
582.21989,0.11829
580.73010,0.10514
579.24031,0.09202
577.75052,0.05221
576.26073,0.06262
574.77094,0.06592
573.28115,0.05911
571.79137,0.05232
570.30158,0.06144
568.81179,0.06161
567.32200,0.06364
565.83221,0.06570
564.34242,0.08689
562.85264,0.10926
561.36285,0.12980
559.87306,0.14209
558.38327,0.15439
556.89348,0.15959
555.40369,0.16020
553.91391,0.17522
552.42412,0.19027
550.93433,0.17484
549.44454,0.17094
547.95475,0.19814
546.46496,0.20603
544.97517,0.21395
543.48539,0.23777
541.99560,0.25564
540.50581,0.26707
539.01602,0.27854
537.52623,0.32157
536.03644,0.37728
534.54666,0.41921
533.05687,0.43894
531.56708,0.45870
530.07729,0.51635
528.58750,0.53558
527.09771,0.57555
525.60792,0.61554
524.11814,0.67652
522.62835,0.72692
521.13856,0.82017
519.64877,0.84622
518.15898,0.87229
516.66919,0.88802
515.17941,0.88467
513.68962,0.87708
512.19983,0.86951
510.71004,0.81396
509.22025,0.77110
507.73046,0.71537
506.24068,0.67716
504.75089,0.63898
503.26110,0.52253
501.77131,0.41095
500.28152,0.36224
498.79173,0.31356
497.30194,0.23935
495.81216,0.19877
494.32237,0.18424
492.83258,0.16973
491.34279,0.13613
489.85300,0.10969
488.36321,0.09433
486.87343,0.10167
485.38364,0.10904
483.89385,0.11770
482.40406,0.12476
480.91427,0.12264
479.42448,0.12055
477.93469,0.13575
476.44491,0.15695
474.95512,0.16552
473.46533,0.17411
471.97554,0.19079
470.48575,0.22268
468.99596,0.20532
467.50618,0.19133
466.01639,0.17736
464.52660,0.13705
463.03681,0.08986
461.54702,0.08103
460.05723,0.07222
458.56745,0.04030
457.07766,0.03579
455.58787,0.02372
454.09808,0.01166
452.60829,0.02611
451.11850,0.00559
449.62871,0.02113
448.13893,0.03670
446.64914,0.02547
445.15935,0.00689
443.66956,0.01320
442.17977,0.01045
440.68998,0.00771
439.20020,0.01870
437.71041,0.04606
436.22062,0.04789
434.73083,0.04974
433.24104,0.02445
431.75125,0.03349
430.26146,0.04496
428.77168,0.05646
427.28189,0.04393
425.79210,0.03648
424.30231,0.03930
422.81252,0.04215
421.32273,0.02948
419.83295,0.03824
418.34316,0.04139
416.85337,0.04456
415.36358,0.03521
413.87379,0.03878
412.38400,0.02590
410.89422,0.01305
409.40443,0.01773
407.91464,0.03165
406.42485,0.02165
404.93506,0.02985
403.44527,0.03808
401.95548,0.03368
400.46570,0.02975
398.97591,0.02344
397.48612,0.01714
395.99633,0.03010
394.50654,0.01683
393.01675,0.02799
391.52697,0.03655
390.03718,0.02971
388.54739,0.02980
387.05760,0.02060
385.56781,0.01141
384.07802,0.00559
382.58824,0.01270
381.09845,0.01719
379.60866,0.02170
378.11887,0.01645
376.62908,0.00524
375.13929,0.00510
373.64950,0.00499
372.15972,0.04427
370.66993,0.03430
369.18014,0.02810
367.69035,0.02192
366.20056,0.03142
364.71077,0.03035
363.22099,0.03219
361.73120,0.03405
360.24141,0.04802
358.75162,0.03438
357.26183,0.04402
355.77204,0.05369
354.28225,0.00559
352.79247,0.03183
351.30268,0.04820
349.81289,0.06460
348.32310,0.08792
346.83331,0.06200
345.34352,0.05797
343.85374,0.05397
342.36395,0.02536
340.87416,0.03259
339.38437,0.04262
337.89458,0.05266
336.40479,0.04708
334.91501,0.02977
333.42522,0.02838
331.93543,0.02701
330.44564,0.04707
328.95585,0.04506
327.46606,0.03305
325.97627,0.02107
324.48649,0.01544
322.99670,0.03816
321.50691,0.06366
320.01712,0.08919
318.52733,0.08136
317.03754,0.08137
315.54776,0.07359
314.05797,0.06582
312.56818,0.06246
311.07839,0.05612
309.58860,0.04820
308.09881,0.04030
306.60902,0.03058
305.11924,0.03355
303.62945,0.01997
302.13966,0.00641
300.64987,0.00967
299.16008,0.00559
