1778.52000,0.00000
1777.03021,0.00511
1775.54042,0.00118
1774.05063,0.00556
1772.56085,0.00893
1771.07106,0.00767
1769.58127,0.01368
1768.09148,0.00935
1766.60169,0.00221
1765.11190,0.01554
1763.62212,0.00405
1762.13233,0.00733
1760.64254,0.00495
1759.15275,0.02045
1757.66296,0.01242
1756.17317,0.00726
1754.68339,0.01352
1753.19360,0.00996
1751.70381,0.02119
1750.21402,0.01743
1748.72423,0.00463
1747.23444,0.02229
1745.74465,0.01150
1744.25487,0.01756
1742.76508,0.01563
1741.27529,0.00905
1739.78550,0.01234
1738.29571,0.01721
1736.80592,0.01719
1735.31614,0.01563
1733.82635,0.02032
1732.33656,0.00664
1730.84677,0.00232
1729.35698,0.01036
1727.86719,0.00601
1726.37740,0.00608
1724.88762,0.01109
1723.39783,0.01380
1721.90804,0.00928
1720.41825,0.01152
1718.92846,0.00809
1717.43867,0.00495
1715.94889,0.01177
1714.45910,0.01214
1712.96931,0.01668
1711.47952,0.00001
1709.98973,0.00615
1708.49994,0.01439
1707.01016,0.01307
1705.52037,0.01178
1704.03058,0.02009
1702.54079,0.00642
1701.05100,0.00495
1699.56121,0.02071
1698.07142,0.01863
1696.58164,0.01683
1695.09185,0.03862
1693.60206,0.02833
1692.11227,0.02480
1690.62248,0.03320
1689.13269,0.04085
1687.64291,0.03428
1686.15312,0.04457
1684.66333,0.05540
1683.17354,0.04606
1681.68375,0.04374
1680.19396,0.05076
1678.70417,0.05108
1677.21439,0.05815
1675.72460,0.05618
1674.23481,0.06641
1672.74502,0.05802
1671.25523,0.07477
1669.76544,0.08223
1668.27566,0.09204
1666.78587,0.08116
1665.29608,0.09076
1663.80629,0.10738
1662.31650,0.09787
1660.82671,0.10547
1659.33693,0.11025
1657.84714,0.10703
1656.35735,0.09710
1654.86756,0.11076
1653.37777,0.09234
1651.88798,0.10398
1650.39819,0.10425
1648.90841,0.10791
1647.41862,0.08570
1645.92883,0.08411
1644.43904,0.08253
1642.94925,0.08888
1641.45946,0.09422
1639.96968,0.08949
1638.47989,0.09099
1636.99010,0.10003
1635.50031,0.10702
1634.01052,0.09436
1632.52073,0.09337
1631.03094,0.09707
1629.54116,0.08837
1628.05137,0.10558
1626.56158,0.11790
1625.07179,0.12066
1623.58200,0.11905
1622.09221,0.10581
1620.60243,0.11745
1619.11264,0.11850
1617.62285,0.10974
1616.13306,0.09583
1614.64327,0.09177
1613.15348,0.09758
1611.66370,0.11093
1610.17391,0.11006
1608.68412,0.10636
1607.19433,0.10761
1605.70454,0.11355
1604.21475,0.11446
1602.72496,0.11539
1601.23518,0.10406
1599.74539,0.09507
1598.25560,0.12366
1596.76581,0.11861
1595.27602,0.11876
1593.78623,0.09072
1592.29645,0.08756
1590.80666,0.10177
1589.31687,0.09218
1587.82708,0.08806
1586.33729,0.08940
1584.84750,0.09620
1583.35771,0.10173
1581.86793,0.10340
1580.37814,0.11106
1578.88835,0.09129
1577.39856,0.09381
1575.90877,0.08756
1574.41898,0.07589
1572.92920,0.07797
1571.43941,0.06946
1569.94962,0.06680
1568.45983,0.06417
1566.97004,0.05289
1565.48025,0.03775
1563.99047,0.03506
1562.50068,0.03809
1561.01089,0.04632
1559.52110,0.04086
1558.03131,0.03257
1556.54152,0.04477
1555.05173,0.03523
1553.56195,0.04592
1552.07216,0.04654
1550.58237,0.02466
1549.09258,0.02377
1547.60279,0.01281
1546.11300,0.02103
1544.62322,0.01297
1543.13343,0.01063
1541.64364,0.00495
1540.15385,0.01177
1538.66406,0.01862
1537.17427,0.01384
1535.68448,0.01944
1534.19470,0.03050
1532.70491,0.03822
1531.21512,0.03329
1529.72533,0.02371
1528.23554,0.02348
1526.74575,0.03156
1525.25597,0.04537
1523.76618,0.03201
1522.27639,0.05414
1520.78660,0.04990
1519.29681,0.04205
1517.80702,0.04174
1516.31724,0.04119
1514.82745,0.04584
1513.33766,0.04742
1511.84787,0.04902
1510.35808,0.05401
1508.86829,0.06083
1507.37850,0.04930
1505.88872,0.05747
1504.39893,0.06696
1502.90914,0.06586
1501.41935,0.07488
1499.92956,0.07694
1498.43977,0.08342
1496.94999,0.08138
1495.46020,0.10138
1493.97041,0.11259
1492.48062,0.12177
1490.99083,0.16229
1489.50104,0.15131
1488.01125,0.15331
1486.52147,0.15533
1485.03168,0.19414
1483.54189,0.21925
1482.05210,0.23352
1480.56231,0.24703
1479.07252,0.27558
1477.58274,0.30131
1476.09295,0.32060
1474.60316,0.31039
1473.11337,0.32791
1471.62358,0.32500
1470.13379,0.34050
1468.64401,0.33117
1467.15422,0.36147
1465.66443,0.38870
1464.17464,0.41594
1462.68485,0.45979
1461.19506,0.48035
1459.70527,0.50509
1458.21549,0.59923
1456.72570,0.64266
1455.23591,0.69284
1453.74612,0.78032
1452.25633,0.83470
1450.76654,0.86036
1449.27676,0.86714
1447.78697,0.85816
1446.29718,0.84299
1444.80739,0.81205
1443.31760,0.78113
1441.82781,0.71684
1440.33802,0.66863
1438.84824,0.59507
1437.35845,0.54613
1435.86866,0.55444
1434.37887,0.57675
1432.88908,0.61565
1431.39929,0.69289
1429.90951,0.76110
1428.41972,0.85341
1426.92993,0.92452
1425.44014,0.98323
1423.95035,0.99600
1422.46056,1.00880
1420.97078,1.03651
1419.48099,1.06942
1417.99120,1.08967
1416.50141,1.04833
1415.01162,1.04844
1413.52183,0.95822
1412.03204,0.90504
1410.54226,0.81927
1409.05247,0.74465
1407.56268,0.68741
1406.07289,0.60974
1404.58310,0.57675
1403.09331,0.54379
1401.60353,0.45946
1400.11374,0.43936
1398.62395,0.39651
1397.13416,0.34901
1395.64437,0.30129
1394.15458,0.25385
1392.66479,0.20566
1391.17501,0.17716
1389.68522,0.15155
1388.19543,0.12129
1386.70564,0.09896
1385.21585,0.07665
1383.72606,0.04828
1382.23628,0.03625
1380.74649,0.04004
1379.25670,0.04929
1377.76691,0.03241
1376.27712,0.02488
1374.78733,0.00495
1373.29755,0.01347
1371.80776,0.01270
1370.31797,0.02206
1368.82818,0.02108
1367.33839,0.02012
1365.84860,0.01194
1364.35881,0.02580
1362.86903,0.04045
1361.37924,0.05099
1359.88945,0.08019
1358.39966,0.09026
1356.90987,0.14825
1355.42008,0.19772
1353.93030,0.26275
1352.44051,0.29040
1350.95072,0.31807
1349.46093,0.39068
1347.97114,0.53141
1346.48135,0.57559
1344.99156,0.67340
1343.50178,0.72229
1342.01199,0.78312
1340.52220,0.81860
1339.03241,0.84323
1337.54262,0.90698
1336.05283,0.92739
1334.56305,0.94782
1333.07326,1.00492
1331.58347,0.99498
1330.09368,0.99077
1328.60389,0.96975
1327.11410,0.94720
1325.62432,0.92701
1324.13453,0.90192
1322.64474,0.87012
1321.15495,0.81971
1319.66516,0.79574
1318.17537,0.77178
1316.68558,0.69608
1315.19580,0.64137
1313.70601,0.58927
1312.21622,0.55376
1310.72643,0.52191
1309.23664,0.49552
1307.74685,0.47252
1306.25707,0.44540
1304.76728,0.42232
1303.27749,0.39926
1301.78770,0.35539
1300.29791,0.31672
1298.80812,0.25296
1297.31834,0.20165
1295.82855,0.18532
1294.33876,0.14571
1292.84897,0.11260
1291.35918,0.10334
1289.86939,0.09798
1288.37960,0.09265
1286.88982,0.08734
1285.40003,0.08387
1283.91024,0.08379
1282.42045,0.07571
1280.93066,0.07594
1279.44087,0.07490
1277.95109,0.06612
1276.46130,0.04519
1274.97151,0.04643
1273.48172,0.04769
1271.99193,0.02218
1270.50214,0.04640
1269.01235,0.04243
1267.52257,0.02812
1266.03278,0.02213
1264.54299,0.02625
1263.05320,0.02005
1261.56341,0.02280
1260.07362,0.02558
1258.58384,0.02308
1257.09405,0.01620
1255.60426,0.00856
1254.11447,0.01468
1252.62468,0.00813
1251.13489,0.02387
1249.64511,0.00495
1248.15532,0.01203
1246.66553,0.01474
1245.17574,0.01748
1243.68595,0.03318
1242.19616,0.02664
1240.70637,0.02790
1239.21659,0.03928
1237.72680,0.02789
1236.23701,0.02922
1234.74722,0.00495
1233.25743,0.01736
1231.76764,0.02979
1230.27786,0.02387
1228.78807,0.01590
1227.29828,0.02556
1225.80849,0.02955
1224.31870,0.02114
1222.82891,0.01249
1221.33912,0.03209
1219.84934,0.04006
1218.35955,0.04806
1216.86976,0.04469
1215.37997,0.05688
1213.89018,0.06909
1212.40039,0.06787
1210.91061,0.09334
1209.42082,0.09320
1207.93103,0.08920
1206.44124,0.08523
1204.95145,0.08465
1203.46166,0.07736
1201.97188,0.06725
1200.48209,0.08513
1198.99230,0.06083
1197.50251,0.03940
1196.01272,0.04984
1194.52293,0.04762
1193.03314,0.04543
1191.54336,0.04688
1190.05357,0.03594
1188.56378,0.03563
1187.07399,0.02525
1185.58420,0.00816
1184.09441,0.01129
1182.60463,0.00811
1181.11484,0.00495
1179.62505,0.02306
1178.13526,0.05000
1176.64547,0.03942
1175.15568,0.03845
1173.66589,0.02559
1172.17611,0.00966
1170.68632,0.00941
1169.19653,0.00918
1167.70674,0.02542
1166.21695,0.03055
1164.72716,0.02587
1163.23738,0.05150
1161.74759,0.04791
1160.25780,0.05599
1158.76801,0.05361
1157.27822,0.05125
1155.78843,0.08478
1154.29865,0.08726
1152.80886,0.09831
1151.31907,0.10835
1149.82928,0.12722
1148.33949,0.14767
1146.84970,0.14885
1145.35991,0.15006
1143.87013,0.17006
1142.38034,0.15643
1140.89055,0.16017
1139.40076,0.17197
1137.91097,0.20735
1136.42118,0.23861
1134.93140,0.23507
1133.44161,0.23156
1131.95182,0.24399
1130.46203,0.25127
1128.97224,0.28318
1127.48245,0.27031
1125.99266,0.29761
1124.50288,0.27961
1123.01309,0.26916
1121.52330,0.25872
1120.03351,0.27265
1118.54372,0.27314
1117.05393,0.28298
1115.56415,0.30915
1114.07436,0.26674
1112.58457,0.27613
1111.09478,0.28555
1109.60499,0.26703
1108.11520,0.26045
1106.62542,0.24923
1105.13563,0.25641
1103.64584,0.24835
1102.15605,0.24652
1100.66626,0.24330
1099.17647,0.24010
1097.68668,0.24327
1096.19690,0.26743
1094.70711,0.26315
1093.21732,0.24775
1091.72753,0.24480
1090.23774,0.23295
1088.74795,0.22112
1087.25817,0.21178
1085.76838,0.22809
1084.27859,0.20715
1082.78880,0.20150
1081.29901,0.20287
1079.80922,0.23042
1078.31943,0.23831
1076.82965,0.24623
1075.33986,0.24926
1073.85007,0.24764
1072.36028,0.29577
1070.87049,0.28644
1069.38070,0.30251
1067.89092,0.31187
1066.40113,0.32126
1064.91134,0.39177
1063.42155,0.50942
1061.93176,0.63254
1060.44197,0.71556
1058.95219,0.85322
1057.46240,0.90651
1055.97261,0.95983
1054.48282,1.06055
1052.99303,1.09191
1051.50324,1.07824
1050.01345,1.07884
1048.52367,1.11623
1047.03388,1.11869
1045.54409,1.12117
1044.05430,1.06776
1042.56451,0.92039
1041.07472,0.82638
1039.58494,0.76502
1038.09515,0.70446
1036.60536,0.66217
1035.11557,0.61992
1033.62578,0.51930
1032.13599,0.47489
1030.64620,0.40979
1029.15642,0.36206
1027.66663,0.32524
1026.17684,0.28843
1024.68705,0.25424
1023.19726,0.19367
1021.70747,0.18361
1020.21769,0.16141
1018.72790,0.16978
1017.23811,0.15448
1015.74832,0.13921
1014.25853,0.12306
1012.76874,0.12092
1011.27896,0.12061
1009.78917,0.14544
1008.29938,0.12447
1006.80959,0.10883
1005.31980,0.09322
1003.83001,0.03659
1002.34022,0.02737
1000.85044,0.04199
999.36065,0.06234
997.87086,0.06523
996.38107,0.06815
994.89128,0.08934
993.40149,0.09503
991.91171,0.12741
990.42192,0.15619
988.93213,0.15288
987.44234,0.14857
985.95255,0.14429
984.46276,0.17006
982.97297,0.15080
981.48319,0.12717
979.99340,0.10460
978.50361,0.09177
977.01382,0.07896
975.52403,0.07769
974.03424,0.07076
972.54446,0.04314
971.05467,0.03366
969.56488,0.01126
968.07509,0.01194
966.58530,0.01263
965.09551,0.00533
963.60573,0.01846
962.11594,0.01194
960.62615,0.00777
959.13636,0.00635
957.64657,0.00495
956.15678,0.02885
954.66699,0.02611
953.17721,0.03712
951.68742,0.03287
950.19763,0.05144
948.70784,0.07003
947.21805,0.08683
945.72826,0.08424
944.23848,0.09695
942.74869,0.11408
941.25890,0.12762
939.76911,0.14610
938.27932,0.16460
936.78953,0.17433
935.29974,0.18848
933.80996,0.20033
932.32017,0.23835
930.83038,0.24002
929.34059,0.24172
927.85080,0.24771
926.36101,0.25606
924.87123,0.28903
923.38144,0.35205
921.89165,0.38960
920.40186,0.42718
918.91207,0.51409
917.42228,0.67224
915.93250,0.84361
914.44271,1.08982
912.95292,1.18228
911.46313,1.27476
909.97334,1.52830
908.48355,1.74614
906.99376,1.94614
905.50398,1.97736
904.01419,1.98867
902.52440,2.00000
901.03461,1.98443
899.54482,1.96527
898.05503,1.82315
896.56525,1.67096
895.07546,1.52889
893.58567,1.38684
892.09588,1.11201
890.60609,0.88949
889.11630,0.67529
887.62651,0.49684
886.13673,0.44010
884.64694,0.38338
883.15715,0.29743
881.66736,0.19157
880.17757,0.15383
878.68778,0.13657
877.19800,0.11933
875.70821,0.08192
874.21842,0.04842
872.72863,0.02840
871.23884,0.01333
869.74905,0.01033
868.25927,0.00735
866.76948,0.02938
865.27969,0.02658
863.78990,0.03027
862.30011,0.06221
860.81032,0.06725
859.32053,0.07232
857.83075,0.08388
856.34096,0.09158
854.85117,0.12494
853.36138,0.15186
851.87159,0.15109
850.38180,0.15035
848.89202,0.14756
847.40223,0.15231
845.91244,0.21999
844.42265,0.23282
842.93286,0.24566
841.44307,0.24637
839.95329,0.25642
838.46350,0.27736
836.97371,0.27296
835.48392,0.26872
833.99413,0.26450
832.50434,0.28502
831.01455,0.27865
829.52477,0.24719
828.03498,0.21420
826.54519,0.19677
825.05540,0.17937
823.56561,0.17493
822.07582,0.14463
820.58604,0.14128
819.09625,0.14055
817.60646,0.13984
816.11667,0.13423
814.62688,0.14030
813.13709,0.12361
811.64730,0.11912
810.15752,0.12215
808.66773,0.12522
807.17794,0.12623
805.68815,0.14850
804.19836,0.15345
802.70857,0.16348
801.21879,0.17352
799.72900,0.14644
798.23921,0.11628
796.74942,0.13663
795.25963,0.13461
793.76984,0.13261
792.28006,0.15951
790.79027,0.16727
789.30048,0.20794
787.81069,0.22067
786.32090,0.23835
784.83111,0.25605
783.34132,0.27921
781.85154,0.33372
780.36175,0.39033
778.87196,0.41551
777.38217,0.44071
775.89238,0.44432
774.40259,0.44407
772.91281,0.41796
771.42302,0.41038
769.93323,0.40283
768.44344,0.35789
766.95365,0.33058
765.46386,0.27611
763.97407,0.24108
762.48429,0.19844
760.99450,0.15583
759.50471,0.15065
758.01492,0.13462
756.52513,0.11293
755.03534,0.10834
753.54556,0.10378
752.05577,0.10261
750.56598,0.08205
749.07619,0.05296
747.58640,0.05226
746.09661,0.05157
744.60683,0.05234
743.11704,0.03216
741.62725,0.00916
740.13746,0.00870
738.64767,0.00827
737.15788,0.01279
735.66809,0.02147
734.17831,0.01283
732.68852,0.00888
731.19873,0.00495
729.70894,0.01814
728.21915,0.03912
726.72936,0.02233
725.23958,0.02498
723.74979,0.02325
722.26000,0.02155
720.77021,0.02868
719.28042,0.02263
717.79063,0.00495
716.30084,0.01498
714.81106,0.02504
713.32127,0.05041
711.83148,0.04524
710.34169,0.04813
708.85190,0.04974
707.36211,0.05139
705.87233,0.06548
704.38254,0.07080
702.89275,0.07924
701.40296,0.06946
699.91317,0.05971
698.42338,0.07548
696.93360,0.09594
695.44381,0.12237
693.95402,0.12359
692.46423,0.12483
690.97444,0.16170
689.48465,0.18073
687.99486,0.20418
686.50508,0.20293
685.01529,0.20171
683.52550,0.26097
682.03571,0.27520
680.54592,0.31716
679.05613,0.30284
677.56635,0.28853
676.07656,0.28552
674.58677,0.26700
673.09698,0.26740
671.60719,0.24426
670.11740,0.22115
668.62761,0.19988
667.13783,0.17087
665.64804,0.15741
664.15825,0.14398
662.66846,0.13446
661.17867,0.11176
659.68888,0.10151
658.19910,0.08935
656.70931,0.07720
655.21952,0.04476
653.72973,0.03876
652.23994,0.05168
650.75015,0.04844
649.26037,0.04522
647.77058,0.07349
646.28079,0.06528
644.79100,0.05605
643.30121,0.04906
641.81142,0.04208
640.32163,0.06167
638.83185,0.05539
637.34206,0.04966
635.85227,0.02958
634.36248,0.00953
632.87269,0.00543
631.38290,0.00495
629.89312,0.02931
628.40333,0.02432
626.91354,0.01935
625.42375,0.00806
623.93396,0.00793
622.44417,0.00912
620.95438,0.01033
619.46460,0.02477
617.97481,0.03768
616.48502,0.07211
614.99523,0.08792
613.50544,0.10376
612.01565,0.11211
610.52587,0.15259
609.03608,0.19284
607.54629,0.21667
606.05650,0.24053
604.56671,0.29069
603.07692,0.34113
601.58714,0.36636
600.09735,0.39161
598.60756,0.43410
597.11777,0.45202
595.62798,0.45210
594.13819,0.45208
592.64840,0.45209
591.15862,0.40227
589.66883,0.35352
588.17904,0.27632
586.68925,0.24393
585.19946,0.21156
583.70967,0.15825
582.21989,0.13655
580.73010,0.12148
579.24031,0.10643
577.75052,0.08170
576.26073,0.07175
574.77094,0.08305
573.28115,0.06914
571.79137,0.05525
570.30158,0.05420
568.81179,0.07260
567.32200,0.07872
565.83221,0.08486
564.34242,0.12922
562.85264,0.13296
561.36285,0.17115
559.87306,0.16808
558.38327,0.16503
556.89348,0.18181
555.40369,0.18981
553.91391,0.20185
552.42412,0.21392
550.93433,0.23080
549.44454,0.22363
547.95475,0.21855
546.46496,0.24211
544.97517,0.26569
543.48539,0.25344
541.99560,0.29221
540.50581,0.30085
539.01602,0.30952
537.52623,0.34656
536.03644,0.41702
534.54666,0.43935
533.05687,0.46585
531.56708,0.49238
530.07729,0.53032
528.58750,0.55611
527.09771,0.58465
525.60792,0.61322
524.11814,0.68854
522.62835,0.74007
521.13856,0.81130
519.64877,0.83452
518.15898,0.85778
516.66919,0.87160
515.17941,0.88598
513.68962,0.87098
512.19983,0.85602
510.71004,0.80419
509.22025,0.77438
507.73046,0.71923
506.24068,0.66035
504.75089,0.60150
503.26110,0.50707
501.77131,0.38264
500.28152,0.33305
498.79173,0.28348
497.30194,0.23291
495.81216,0.18210
494.32237,0.15915
492.83258,0.13622
491.34279,0.11034
489.85300,0.08993
488.36321,0.07057
486.87343,0.07143
485.38364,0.07232
483.89385,0.08824
482.40406,0.08426
480.91427,0.08988
479.42448,0.09553
477.93469,0.11829
476.44491,0.15894
474.95512,0.16738
473.46533,0.17584
471.97554,0.19041
470.48575,0.21252
468.99596,0.20591
467.50618,0.19066
466.01639,0.17543
464.52660,0.15284
463.03681,0.08912
461.54702,0.07228
460.05723,0.05547
458.56745,0.02781
457.07766,0.01415
455.58787,0.01683
454.09808,0.01953
452.60829,0.01734
451.11850,0.01958
449.62871,0.01407
448.13893,0.00859
446.64914,0.02824
445.15935,0.00495
443.66956,0.00890
442.17977,0.01237
440.68998,0.01585
439.20020,0.01704
437.71041,0.05061
436.22062,0.04860
434.73083,0.04663
433.24104,0.03160
431.75125,0.03498
430.26146,0.03773
428.77168,0.04051
427.28189,0.05018
425.79210,0.05961
424.30231,0.05302
422.81252,0.04645
421.32273,0.04016
419.83295,0.03986
418.34316,0.03996
416.85337,0.04009
415.36358,0.03805
413.87379,0.04328
412.38400,0.03456
410.89422,0.02585
409.40443,0.02365
407.91464,0.03131
406.42485,0.04184
404.93506,0.03505
403.44527,0.02829
401.95548,0.03191
400.46570,0.03866
398.97591,0.03067
397.48612,0.02271
395.99633,0.04093
394.50654,0.01930
393.01675,0.02617
391.52697,0.02883
390.03718,0.03644
388.54739,0.03346
387.05760,0.02623
385.56781,0.01902
384.07802,0.01094
382.58824,0.00495
381.09845,0.01551
379.60866,0.02609
378.11887,0.02169
376.62908,0.01213
375.13929,0.00622
373.64950,0.00033
372.15972,0.03353
370.66993,0.02920
369.18014,0.02582
367.69035,0.02246
366.20056,0.04333
364.71077,0.04662
363.22099,0.03454
361.73120,0.02247
360.24141,0.03490
358.75162,0.03286
357.26183,0.03537
355.77204,0.03790
354.28225,0.02506
352.79247,0.05056
351.30268,0.05796
349.81289,0.06538
348.32310,0.06092
346.83331,0.05442
345.34352,0.03564
343.85374,0.01688
342.36395,0.02521
340.87416,0.03097
339.38437,0.03352
337.89458,0.03610
336.40479,0.03805
334.91501,0.02527
333.42522,0.02869
331.93543,0.03215
330.44564,0.00701
328.95585,0.00495
327.46606,0.00666
325.97627,0.00839
324.48649,0.04192
322.99670,0.03845
321.50691,0.04484
320.01712,0.05126
318.52733,0.09188
317.03754,0.09576
315.54776,0.08193
314.05797,0.06812
312.56818,0.04618
311.07839,0.03462
309.58860,0.04057
308.09881,0.04654
306.60902,0.03169
305.11924,0.03059
303.62945,0.02097
302.13966,0.01138
300.64987,0.03313
299.16008,0.00495
