1778.52000,0.00846
1777.03021,0.01288
1775.54042,0.02057
1774.05063,0.01067
1772.56085,0.01145
1771.07106,0.00762
1769.58127,0.01447
1768.09148,0.00420
1766.60169,0.01596
1765.11190,0.01477
1763.62212,0.01477
1762.13233,0.01756
1760.64254,0.01668
1759.15275,0.02021
1757.66296,0.01381
1756.17317,0.01717
1754.68339,0.02124
1753.19360,0.02093
1751.70381,0.02273
1750.21402,0.01135
1748.72423,0.01846
1747.23444,0.01378
1745.74465,0.01654
1744.25487,0.03021
1742.76508,0.02559
1741.27529,0.01962
1739.78550,0.01598
1738.29571,0.01839
1736.80592,0.02360
1735.31614,0.02188
1733.82635,0.01440
1732.33656,0.00439
1730.84677,0.00738
1729.35698,0.01155
1727.86719,0.01157
1726.37740,0.01533
1724.88762,0.01725
1723.39783,0.01781
1721.90804,0.01167
1720.41825,0.01320
1718.92846,0.01544
1717.43867,0.00822
1715.94889,0.01517
1714.45910,0.01241
1712.96931,0.01710
1711.47952,0.01369
1709.98973,0.01425
1708.49994,0.01669
1707.01016,0.01532
1705.52037,0.01398
1704.03058,0.01301
1702.54079,0.01461
1701.05100,0.01230
1699.56121,0.00885
1698.07142,0.00241
1696.58164,0.00898
1695.09185,0.01278
1693.60206,0.00572
1692.11227,0.01513
1690.62248,0.00440
1689.13269,0.00668
1687.64291,0.00782
1686.15312,0.01640
1684.66333,0.01666
1683.17354,0.00420
1681.68375,0.00633
1680.19396,0.01103
1678.70417,0.01900
1677.21439,0.02653
1675.72460,0.01578
1674.23481,0.02939
1672.74502,0.02424
1671.25523,0.03025
1669.76544,0.03257
1668.27566,0.03885
1666.78587,0.02777
1665.29608,0.04615
1663.80629,0.05875
1662.31650,0.05331
1660.82671,0.06087
1659.33693,0.06428
1657.84714,0.05103
1656.35735,0.04985
1654.86756,0.06004
1653.37777,0.07235
1651.88798,0.05919
1650.39819,0.07155
1648.90841,0.06029
1647.41862,0.05485
1645.92883,0.06136
1644.43904,0.06790
1642.94925,0.07898
1641.45946,0.07340
1639.96968,0.07456
1638.47989,0.08363
1636.99010,0.08182
1635.50031,0.07541
1634.01052,0.07273
1632.52073,0.08605
1631.03094,0.07484
1629.54116,0.08683
1628.05137,0.08702
1626.56158,0.08422
1625.07179,0.09071
1623.58200,0.10488
1622.09221,0.08802
1620.60243,0.08392
1619.11264,0.08471
1617.62285,0.08854
1616.13306,0.08151
1614.64327,0.07936
1613.15348,0.09183
1611.66370,0.10201
1610.17391,0.09854
1608.68412,0.08814
1607.19433,0.09909
1605.70454,0.08526
1604.21475,0.09058
1602.72496,0.09591
1601.23518,0.10301
1599.74539,0.09947
1598.25560,0.10129
1596.76581,0.09757
1595.27602,0.09271
1593.78623,0.08278
1592.29645,0.06499
1590.80666,0.07665
1589.31687,0.08255
1587.82708,0.08453
1586.33729,0.07911
1584.84750,0.07581
1583.35771,0.07160
1581.86793,0.06974
1580.37814,0.06558
1578.88835,0.08623
1577.39856,0.08513
1575.90877,0.07524
1574.41898,0.07094
1572.92920,0.06667
1571.43941,0.06195
1569.94962,0.05795
1568.45983,0.05398
1566.97004,0.05675
1565.48025,0.03869
1563.99047,0.03270
1562.50068,0.03994
1561.01089,0.02774
1559.52110,0.02460
1558.03131,0.02820
1556.54152,0.01144
1555.05173,0.02065
1553.56195,0.01112
1552.07216,0.01481
1550.58237,0.01367
1549.09258,0.00235
1547.60279,0.00657
1546.11300,0.01244
1544.62322,0.00420
1543.13343,0.01618
1541.64364,0.01337
1540.15385,0.01486
1538.66406,0.01637
1537.17427,0.01780
1535.68448,0.01415
1534.19470,0.01747
1532.70491,0.01502
1531.21512,0.02349
1529.72533,0.01854
1528.23554,0.01176
1526.74575,0.03026
1525.25597,0.02863
1523.76618,0.03281
1522.27639,0.02103
1520.78660,0.03336
1519.29681,0.04271
1517.80702,0.02359
1516.31724,0.02279
1514.82745,0.03846
1513.33766,0.03667
1511.84787,0.03489
1510.35808,0.03952
1508.86829,0.04648
1507.37850,0.04675
1505.88872,0.05908
1504.39893,0.06426
1502.90914,0.05695
1501.41935,0.04782
1499.92956,0.05538
1498.43977,0.06251
1496.94999,0.06155
1495.46020,0.05760
1493.97041,0.07360
1492.48062,0.10515
1490.99083,0.10451
1489.50104,0.10691
1488.01125,0.10320
1486.52147,0.09950
1485.03168,0.10568
1483.54189,0.14200
1482.05210,0.14776
1480.56231,0.17231
1479.07252,0.18623
1477.58274,0.19484
1476.09295,0.20278
1474.60316,0.19499
1473.11337,0.18374
1471.62358,0.20148
1470.13379,0.19469
1468.64401,0.21989
1467.15422,0.22310
1465.66443,0.22611
1464.17464,0.22913
1462.68485,0.27899
1461.19506,0.29087
1459.70527,0.34007
1458.21549,0.39301
1456.72570,0.47238
1455.23591,0.48853
1453.74612,0.53087
1452.25633,0.57788
1450.76654,0.62792
1449.27676,0.63025
1447.78697,0.62288
1446.29718,0.63244
1444.80739,0.62396
1443.31760,0.61550
1441.82781,0.54149
1440.33802,0.49878
1438.84824,0.45355
1437.35845,0.43800
1435.86866,0.42618
1434.37887,0.47740
1432.88908,0.52865
1431.39929,0.53613
1429.90951,0.61523
1428.41972,0.68786
1426.92993,0.75102
1425.44014,0.77643
1423.95035,0.80557
1422.46056,0.83474
1420.97078,0.84841
1419.48099,0.87160
1417.99120,0.90686
1416.50141,0.94770
1415.01162,0.91605
1413.52183,0.82650
1412.03204,0.74438
1410.54226,0.70909
1409.05247,0.64371
1407.56268,0.60592
1406.07289,0.55656
1404.58310,0.52635
1403.09331,0.49616
1401.60353,0.44618
1400.11374,0.39066
1398.62395,0.33471
1397.13416,0.28966
1395.64437,0.24997
1394.15458,0.23116
1392.66479,0.19406
1391.17501,0.15606
1389.68522,0.14937
1388.19543,0.10261
1386.70564,0.08658
1385.21585,0.07057
1383.72606,0.05586
1382.23628,0.05484
1380.74649,0.05083
1379.25670,0.03271
1377.76691,0.04010
1376.27712,0.01508
1374.78733,0.01742
1373.29755,0.02442
1371.80776,0.02357
1370.31797,0.00420
1368.82818,0.01117
1367.33839,0.01817
1365.84860,0.03493
1364.35881,0.02761
1362.86903,0.03306
1361.37924,0.04641
1359.88945,0.07299
1358.39966,0.09959
1356.90987,0.12831
1355.42008,0.18855
1353.93030,0.23932
1352.44051,0.25501
1350.95072,0.27073
1349.46093,0.34705
1347.97114,0.43591
1346.48135,0.51321
1344.99156,0.58034
1343.50178,0.62224
1342.01199,0.66925
1340.52220,0.72765
1339.03241,0.79973
1337.54262,0.86443
1336.05283,0.88223
1334.56305,0.90005
1333.07326,0.88234
1331.58347,0.86093
1330.09368,0.88520
1328.60389,0.85875
1327.11410,0.86823
1325.62432,0.82097
1324.13453,0.80710
1322.64474,0.76475
1321.15495,0.72822
1319.66516,0.71732
1318.17537,0.70644
1316.68558,0.62433
1315.19580,0.56287
1313.70601,0.52090
1312.21622,0.52227
1310.72643,0.47223
1309.23664,0.43936
1307.74685,0.39424
1306.25707,0.37509
1304.76728,0.35202
1303.27749,0.32897
1301.78770,0.30549
1300.29791,0.24774
1298.80812,0.22476
1297.31834,0.18351
1295.82855,0.16521
1294.33876,0.13860
1292.84897,0.10715
1291.35918,0.09263
1289.86939,0.09192
1288.37960,0.09124
1286.88982,0.07308
1285.40003,0.07905
1283.91024,0.06048
1282.42045,0.05885
1280.93066,0.06627
1279.44087,0.04754
1277.95109,0.04968
1276.46130,0.04073
1274.97151,0.03886
1273.48172,0.03702
1271.99193,0.02026
1270.50214,0.02669
1269.01235,0.02665
1267.52257,0.02896
1266.03278,0.02040
1264.54299,0.02461
1263.05320,0.04830
1261.56341,0.04004
1260.07362,0.03181
1258.58384,0.02290
1257.09405,0.01935
1255.60426,0.01280
1254.11447,0.00420
1252.62468,0.00494
1251.13489,0.01914
1249.64511,0.01252
1248.15532,0.02028
1246.66553,0.01764
1245.17574,0.01503
1243.68595,0.00571
1242.19616,0.01479
1240.70637,0.02830
1239.21659,0.02653
1237.72680,0.02224
1236.23701,0.02493
1234.74722,0.01791
1233.25743,0.01531
1231.76764,0.01274
1230.27786,0.01088
1228.78807,0.02179
1227.29828,0.03551
1225.80849,0.01959
1224.31870,0.01342
1222.82891,0.01863
1221.33912,0.03406
1219.84934,0.02878
1218.35955,0.02352
1216.86976,0.02929
1215.37997,0.02906
1213.89018,0.06453
1212.40039,0.05971
1210.91061,0.05816
1209.42082,0.07540
1207.93103,0.06717
1206.44124,0.05897
1204.95145,0.06307
1203.46166,0.06071
1201.97188,0.06346
1200.48209,0.04748
1198.99230,0.05121
1197.50251,0.04060
1196.01272,0.03024
1194.52293,0.03092
1193.03314,0.03161
1191.54336,0.02527
1190.05357,0.03632
1188.56378,0.02678
1187.07399,0.02143
1185.58420,0.01170
1184.09441,0.01520
1182.60463,0.00969
1181.11484,0.00420
1179.62505,0.00607
1178.13526,0.02420
1176.64547,0.01477
1175.15568,0.01394
1173.66589,0.02054
1172.17611,0.01211
1170.68632,0.01343
1169.19653,0.01478
1167.70674,0.01707
1166.21695,0.03098
1164.72716,0.04583
1163.23738,0.04102
1161.74759,0.03090
1160.25780,0.05416
1158.76801,0.06343
1157.27822,0.07273
1155.78843,0.08309
1154.29865,0.08884
1152.80886,0.10782
1151.31907,0.12381
1149.82928,0.12337
1148.33949,0.14984
1146.84970,0.15825
1145.35991,0.16669
1143.87013,0.16959
1142.38034,0.17993
1140.89055,0.16944
1139.40076,0.18214
1137.91097,0.19023
1136.42118,0.21712
1134.93140,0.21911
1133.44161,0.22114
1131.95182,0.22075
1130.46203,0.24077
1128.97224,0.24692
1127.48245,0.26166
1125.99266,0.27689
1124.50288,0.28519
1123.01309,0.28344
1121.52330,0.28171
1120.03351,0.27409
1118.54372,0.25654
1117.05393,0.25430
1115.56415,0.22914
1114.07436,0.26170
1112.58457,0.25953
1111.09478,0.25738
1109.60499,0.25341
1108.11520,0.26382
1106.62542,0.24112
1105.13563,0.23281
1103.64584,0.22429
1102.15605,0.21649
1100.66626,0.21995
1099.17647,0.22344
1097.68668,0.21571
1096.19690,0.22005
1094.70711,0.23832
1093.21732,0.21861
1091.72753,0.23113
1090.23774,0.21020
1088.74795,0.18928
1087.25817,0.18589
1085.76838,0.17371
1084.27859,0.18982
1082.78880,0.17885
1081.29901,0.17207
1079.80922,0.17598
1078.31943,0.18361
1076.82965,0.19127
1075.33986,0.19709
1073.85007,0.18788
1072.36028,0.19491
1070.87049,0.20892
1069.38070,0.21808
1067.89092,0.24117
1066.40113,0.26429
1064.91134,0.34975
1063.42155,0.42504
1061.93176,0.48251
1060.44197,0.53699
1058.95219,0.62649
1057.46240,0.67442
1055.97261,0.72237
1054.48282,0.80058
1052.99303,0.85031
1051.50324,0.78863
1050.01345,0.81060
1048.52367,0.82565
1047.03388,0.83285
1045.54409,0.84007
1044.05430,0.82646
1042.56451,0.73178
1041.07472,0.67975
1039.58494,0.64791
1038.09515,0.59107
1036.60536,0.55417
1035.11557,0.51730
1033.62578,0.45497
1032.13599,0.41281
1030.64620,0.37532
1029.15642,0.29058
1027.66663,0.27027
1026.17684,0.24999
1024.68705,0.20332
1023.19726,0.18378
1021.70747,0.16473
1020.21769,0.12670
1018.72790,0.13619
1017.23811,0.12451
1015.74832,0.11285
1014.25853,0.08024
1012.76874,0.05878
1011.27896,0.06653
1009.78917,0.04720
1008.29938,0.04597
1006.80959,0.04233
1005.31980,0.03871
1003.83001,0.02156
1002.34022,0.00420
1000.85044,0.03009
999.36065,0.03630
997.87086,0.04452
996.38107,0.05275
994.89128,0.05348
993.40149,0.06697
991.91171,0.08211
990.42192,0.07364
988.93213,0.08257
987.44234,0.08990
985.95255,0.09726
984.46276,0.08795
982.97297,0.08910
981.48319,0.08679
979.99340,0.06319
978.50361,0.04784
977.01382,0.03252
975.52403,0.03957
974.03424,0.02695
972.54446,0.02687
971.05467,0.00573
969.56488,0.00477
968.07509,0.01076
966.58530,0.01677
965.09551,0.01550
963.60573,0.00707
962.11594,0.00632
960.62615,0.00420
959.13636,0.01357
957.64657,0.02296
956.15678,0.02752
954.66699,0.03093
953.17721,0.03600
951.68742,0.05290
950.19763,0.05245
948.70784,0.05202
947.21805,0.06065
945.72826,0.05911
944.23848,0.06848
942.74869,0.09618
941.25890,0.12368
939.76911,0.12941
938.27932,0.13517
936.78953,0.17409
935.29974,0.18267
933.80996,0.19314
932.32017,0.22818
930.83038,0.23116
929.34059,0.23416
927.85080,0.23198
926.36101,0.26109
924.87123,0.30321
923.38144,0.33886
921.89165,0.36456
920.40186,0.39030
918.91207,0.48325
917.42228,0.60634
915.93250,0.74730
914.44271,0.90820
912.95292,1.03298
911.46313,1.15779
909.97334,1.41330
908.48355,1.64821
906.99376,1.76266
905.50398,1.83103
904.01419,1.86594
902.52440,1.90087
901.03461,1.96537
899.54482,2.00000
898.05503,1.85625
896.56525,1.65158
895.07546,1.52781
893.58567,1.40405
892.09588,1.13783
890.60609,0.89595
889.11630,0.65387
887.62651,0.50912
886.13673,0.44051
884.64694,0.37192
883.15715,0.24277
881.66736,0.16716
880.17757,0.12332
878.68778,0.10696
877.19800,0.09062
875.70821,0.05936
874.21842,0.03716
872.72863,0.02031
871.23884,0.02133
869.74905,0.01275
868.25927,0.00420
866.76948,0.01260
865.27969,0.01779
863.78990,0.02624
862.30011,0.03031
860.81032,0.03186
859.32053,0.03343
857.83075,0.02576
856.34096,0.05448
854.85117,0.06307
853.36138,0.09995
851.87159,0.10651
850.38180,0.11308
848.89202,0.12015
847.40223,0.12468
845.91244,0.16354
844.42265,0.16244
842.93286,0.16137
841.44307,0.15303
839.95329,0.17552
838.46350,0.17093
836.97371,0.19718
835.48392,0.19913
833.99413,0.20109
832.50434,0.19799
831.01455,0.19629
829.52477,0.17331
828.03498,0.13829
826.54519,0.12879
825.05540,0.11932
823.56561,0.11658
822.07582,0.09440
820.58604,0.09936
819.09625,0.09299
817.60646,0.08664
816.11667,0.08031
814.62688,0.09695
813.13709,0.07908
811.64730,0.08789
810.15752,0.09776
808.66773,0.10765
807.17794,0.10031
805.68815,0.10040
804.19836,0.09982
802.70857,0.11131
801.21879,0.12283
799.72900,0.10216
798.23921,0.09148
796.74942,0.09866
795.25963,0.09243
793.76984,0.08622
792.28006,0.09533
790.79027,0.11211
789.30048,0.13400
787.81069,0.14434
786.32090,0.14983
784.83111,0.15535
783.34132,0.18221
781.85154,0.23040
780.36175,0.28117
778.87196,0.29153
777.38217,0.30191
775.89238,0.30849
774.40259,0.32460
772.91281,0.30088
771.42302,0.28598
769.93323,0.27111
768.44344,0.23240
766.95365,0.17540
765.46386,0.15875
763.97407,0.12821
762.48429,0.12470
760.99450,0.12120
759.50471,0.09074
758.01492,0.07953
756.52513,0.06857
755.03534,0.05892
753.54556,0.04928
752.05577,0.04512
750.56598,0.03958
749.07619,0.02944
747.58640,0.02488
746.09661,0.02035
744.60683,0.02927
743.11704,0.00833
741.62725,0.01522
740.13746,0.01576
738.64767,0.01632
737.15788,0.02745
735.66809,0.02215
734.17831,0.00622
732.68852,0.00803
731.19873,0.00987
729.70894,0.00420
728.21915,0.00892
726.72936,0.01390
725.23958,0.00987
723.74979,0.00702
722.26000,0.00420
720.77021,0.01105
719.28042,0.00518
717.79063,0.01485
716.30084,0.01158
714.81106,0.00833
713.32127,0.00719
711.83148,0.02483
710.34169,0.00845
708.85190,0.01259
707.36211,0.01675
705.87233,0.02036
704.38254,0.03071
702.89275,0.04850
701.40296,0.04650
699.91317,0.04452
698.42338,0.05728
696.93360,0.07586
695.44381,0.09886
693.95402,0.10103
692.46423,0.10323
690.97444,0.14437
689.48465,0.14013
687.99486,0.16093
686.50508,0.16971
685.01529,0.17851
683.52550,0.20749
682.03571,0.24113
680.54592,0.26274
679.05613,0.26144
677.56635,0.26016
676.07656,0.25242
674.58677,0.23103
673.09698,0.22773
671.60719,0.21392
670.11740,0.20013
668.62761,0.15034
667.13783,0.15270
665.64804,0.13400
664.15825,0.11532
662.66846,0.11335
661.17867,0.08290
659.68888,0.07819
658.19910,0.06992
656.70931,0.06167
655.21952,0.04823
653.72973,0.03736
652.23994,0.03856
650.75015,0.03238
649.26037,0.02621
647.77058,0.03166
646.28079,0.03365
644.79100,0.03381
643.30121,0.03758
641.81142,0.04138
640.32163,0.02933
638.83185,0.01105
637.34206,0.02987
635.85227,0.02148
634.36248,0.01311
632.87269,0.01763
631.38290,0.00711
629.89312,0.00797
628.40333,0.01314
626.91354,0.01833
625.42375,0.00420
623.93396,0.02591
622.44417,0.03038
620.95438,0.03487
619.46460,0.04252
617.97481,0.05783
616.48502,0.07873
614.99523,0.08367
613.50544,0.08863
612.01565,0.12396
610.52587,0.15283
609.03608,0.18567
607.54629,0.19825
606.05650,0.21085
604.56671,0.26067
603.07692,0.34851
601.58714,0.36605
600.09735,0.38361
598.60756,0.40850
597.11777,0.40677
595.62798,0.41896
594.13819,0.40255
592.64840,0.38618
591.15862,0.36553
589.66883,0.30437
588.17904,0.26199
586.68925,0.23633
585.19946,0.21068
583.70967,0.17046
582.21989,0.14648
580.73010,0.12647
579.24031,0.10648
577.75052,0.07747
576.26073,0.08139
574.77094,0.05846
573.28115,0.04621
571.79137,0.03398
570.30158,0.05398
568.81179,0.05384
567.32200,0.06659
565.83221,0.07936
564.34242,0.09042
562.85264,0.08389
561.36285,0.09268
559.87306,0.10659
558.38327,0.12052
556.89348,0.12961
555.40369,0.14660
553.91391,0.14716
552.42412,0.14774
550.93433,0.14511
549.44454,0.14458
547.95475,0.15613
546.46496,0.17082
544.97517,0.18554
543.48539,0.21106
541.99560,0.22386
540.50581,0.24479
539.01602,0.26574
537.52623,0.32981
536.03644,0.36610
534.54666,0.39755
533.05687,0.40771
531.56708,0.41789
530.07729,0.46678
528.58750,0.54235
527.09771,0.57507
525.60792,0.60782
524.11814,0.72377
522.62835,0.75355
521.13856,0.79703
519.64877,0.81180
518.15898,0.82659
516.66919,0.89562
515.17941,0.92204
513.68962,0.92544
512.19983,0.92885
510.71004,0.85989
509.22025,0.77774
507.73046,0.69028
506.24068,0.64201
504.75089,0.59375
503.26110,0.49293
501.77131,0.42202
500.28152,0.36758
498.79173,0.31317
497.30194,0.22472
495.81216,0.21530
494.32237,0.19038
492.83258,0.16548
491.34279,0.11211
489.85300,0.09468
488.36321,0.09742
486.87343,0.09718
485.38364,0.09696
483.89385,0.10047
482.40406,0.08987
480.91427,0.09992
479.42448,0.10999
477.93469,0.11475
476.44491,0.16333
474.95512,0.16744
473.46533,0.17158
471.97554,0.19196
470.48575,0.18734
468.99596,0.17185
467.50618,0.16450
466.01639,0.15717
464.52660,0.12576
463.03681,0.09045
461.54702,0.08087
460.05723,0.07131
458.56745,0.05877
457.07766,0.03559
455.58787,0.02333
454.09808,0.01109
452.60829,0.00420
451.11850,0.00748
449.62871,0.01242
448.13893,0.01737
446.64914,0.03116
445.15935,0.02620
443.66956,0.00458
442.17977,0.01194
440.68998,0.01933
439.20020,0.00983
437.71041,0.03488
436.22062,0.03295
434.73083,0.03105
433.24104,0.03508
431.75125,0.04145
430.26146,0.04217
428.77168,0.04291
427.28189,0.04009
425.79210,0.03265
424.30231,0.03543
422.81252,0.03823
421.32273,0.05380
419.83295,0.03117
418.34316,0.02164
416.85337,0.01215
415.36358,0.01553
413.87379,0.02542
412.38400,0.02827
410.89422,0.03115
409.40443,0.01748
407.91464,0.02515
406.42485,0.02798
404.93506,0.02921
403.44527,0.03046
401.95548,0.02201
400.46570,0.02632
398.97591,0.01525
397.48612,0.00420
395.99633,0.02360
394.50654,0.04441
393.01675,0.04196
391.52697,0.03953
390.03718,0.03284
388.54739,0.01320
387.05760,0.01119
385.56781,0.00921
384.07802,0.00470
382.58824,0.02474
381.09845,0.02639
379.60866,0.02806
378.11887,0.00601
376.62908,0.01665
375.13929,0.00831
373.64950,0.00000
372.15972,0.01812
370.66993,0.02654
369.18014,0.02305
367.69035,0.01958
366.20056,0.00420
364.71077,0.03376
363.22099,0.02476
361.73120,0.01579
360.24141,0.02202
358.75162,0.01900
357.26183,0.02308
355.77204,0.02718
354.28225,0.01519
352.79247,0.03266
351.30268,0.04158
349.81289,0.05052
348.32310,0.04952
346.83331,0.03881
345.34352,0.04249
343.85374,0.04620
342.36395,0.02838
340.87416,0.04279
339.38437,0.04286
337.89458,0.04295
336.40479,0.02707
334.91501,0.01794
333.42522,0.01903
331.93543,0.02014
330.44564,0.02614
328.95585,0.02660
327.46606,0.01539
325.97627,0.00420
324.48649,0.03165
322.99670,0.04685
321.50691,0.06589
320.01712,0.08496
318.52733,0.08215
317.03754,0.07566
315.54776,0.04695
314.05797,0.01827
312.56818,0.01880
311.07839,0.04832
309.58860,0.04994
308.09881,0.05158
306.60902,0.07792
305.11924,0.03200
303.62945,0.02317
302.13966,0.01437
300.64987,0.00420
299.16008,0.00420
