1778.52000,0.01043
1777.03021,0.01888
1775.54042,0.01337
1774.05063,0.00810
1772.56085,0.02070
1771.07106,0.00430
1769.58127,0.00770
1768.09148,0.00210
1766.60169,0.00512
1765.11190,0.01784
1763.62212,0.01468
1762.13233,0.01283
1760.64254,0.01208
1759.15275,0.02211
1757.66296,0.01302
1756.17317,0.01879
1754.68339,0.01921
1753.19360,0.01321
1751.70381,0.01217
1750.21402,0.00837
1748.72423,0.00846
1747.23444,0.00965
1745.74465,0.01839
1744.25487,0.00866
1742.76508,0.01956
1741.27529,0.02252
1739.78550,0.01971
1738.29571,0.01606
1736.80592,0.01867
1735.31614,0.01894
1733.82635,0.01106
1732.33656,0.00428
1730.84677,0.01366
1729.35698,0.01273
1727.86719,0.00732
1726.37740,0.01204
1724.88762,0.00667
1723.39783,0.00692
1721.90804,0.00590
1720.41825,0.00577
1718.92846,0.00244
1717.43867,0.01009
1715.94889,0.00294
1714.45910,0.01290
1712.96931,0.01321
1711.47952,0.01097
1709.98973,0.01520
1708.49994,0.00870
1707.01016,0.00933
1705.52037,0.00997
1704.03058,0.01215
1702.54079,0.00210
1701.05100,0.00497
1699.56121,0.01303
1698.07142,0.01187
1696.58164,0.01310
1695.09185,0.02124
1693.60206,0.02660
1692.11227,0.02769
1690.62248,0.02450
1689.13269,0.02886
1687.64291,0.02141
1686.15312,0.02862
1684.66333,0.02359
1683.17354,0.03127
1681.68375,0.02006
1680.19396,0.02134
1678.70417,0.03426
1677.21439,0.03107
1675.72460,0.03286
1674.23481,0.05338
1672.74502,0.04015
1671.25523,0.05083
1669.76544,0.05723
1668.27566,0.04774
1666.78587,0.05375
1665.29608,0.05657
1663.80629,0.05661
1662.31650,0.08614
1660.82671,0.08559
1659.33693,0.08312
1657.84714,0.07810
1656.35735,0.07418
1654.86756,0.08384
1653.37777,0.08577
1651.88798,0.07934
1650.39819,0.06928
1648.90841,0.07968
1647.41862,0.06687
1645.92883,0.06753
1644.43904,0.06821
1642.94925,0.07655
1641.45946,0.07739
1639.96968,0.07976
1638.47989,0.08474
1636.99010,0.07404
1635.50031,0.09626
1634.01052,0.08453
1632.52073,0.08337
1631.03094,0.08997
1629.54116,0.09229
1628.05137,0.10368
1626.56158,0.09250
1625.07179,0.09081
1623.58200,0.09323
1622.09221,0.09503
1620.60243,0.09148
1619.11264,0.10064
1617.62285,0.09220
1616.13306,0.09065
1614.64327,0.08075
1613.15348,0.08700
1611.66370,0.10531
1610.17391,0.09333
1608.68412,0.09212
1607.19433,0.09610
1605.70454,0.10032
1604.21475,0.09811
1602.72496,0.09593
1601.23518,0.09872
1599.74539,0.08024
1598.25560,0.09856
1596.76581,0.10679
1595.27602,0.09548
1593.78623,0.09646
1592.29645,0.08455
1590.80666,0.08407
1589.31687,0.08769
1587.82708,0.07737
1586.33729,0.06921
1584.84750,0.07593
1583.35771,0.07492
1581.86793,0.08275
1580.37814,0.07749
1578.88835,0.07979
1577.39856,0.07328
1575.90877,0.06960
1574.41898,0.06208
1572.92920,0.04748
1571.43941,0.05032
1569.94962,0.05179
1568.45983,0.05328
1566.97004,0.04545
1565.48025,0.04409
1563.99047,0.03351
1562.50068,0.03886
1561.01089,0.03844
1559.52110,0.02814
1558.03131,0.01679
1556.54152,0.02676
1555.05173,0.02342
1553.56195,0.00936
1552.07216,0.00864
1550.58237,0.01183
1549.09258,0.00407
1547.60279,0.01333
1546.11300,0.00540
1544.62322,0.01384
1543.13343,0.00210
1541.64364,0.00518
1540.15385,0.00754
1538.66406,0.00992
1537.17427,0.00533
1535.68448,0.02120
1534.19470,0.01000
1532.70491,0.01022
1531.21512,0.01175
1529.72533,0.01610
1528.23554,0.01618
1526.74575,0.02703
1525.25597,0.03189
1523.76618,0.02602
1522.27639,0.03028
1520.78660,0.02166
1519.29681,0.03543
1517.80702,0.03611
1516.31724,0.03853
1514.82745,0.02313
1513.33766,0.02926
1511.84787,0.03541
1510.35808,0.03922
1508.86829,0.04542
1507.37850,0.03788
1505.88872,0.04198
1504.39893,0.04159
1502.90914,0.07197
1501.41935,0.04926
1499.92956,0.05238
1498.43977,0.06112
1496.94999,0.06450
1495.46020,0.07221
1493.97041,0.08145
1492.48062,0.09050
1490.99083,0.10301
1489.50104,0.10888
1488.01125,0.11865
1486.52147,0.12844
1485.03168,0.14385
1483.54189,0.17132
1482.05210,0.17667
1480.56231,0.18462
1479.07252,0.20765
1477.58274,0.21910
1476.09295,0.23895
1474.60316,0.23023
1473.11337,0.23379
1471.62358,0.24726
1470.13379,0.24700
1468.64401,0.25859
1467.15422,0.26117
1465.66443,0.27743
1464.17464,0.29371
1462.68485,0.34798
1461.19506,0.36227
1459.70527,0.40820
1458.21549,0.46749
1456.72570,0.51970
1455.23591,0.56721
1453.74612,0.60915
1452.25633,0.66423
1450.76654,0.69654
1449.27676,0.68522
1447.78697,0.68274
1446.29718,0.67577
1444.80739,0.64882
1443.31760,0.62190
1441.82781,0.61285
1440.33802,0.53996
1438.84824,0.48558
1437.35845,0.47123
1435.86866,0.47454
1434.37887,0.50088
1432.88908,0.51714
1431.39929,0.57471
1429.90951,0.63597
1428.41972,0.71940
1426.92993,0.77016
1425.44014,0.81170
1423.95035,0.82069
1422.46056,0.82970
1420.97078,0.87282
1419.48099,0.89597
1417.99120,0.92344
1416.50141,0.93330
1415.01162,0.89393
1413.52183,0.85696
1412.03204,0.78195
1410.54226,0.72825
1409.05247,0.67243
1407.56268,0.61146
1406.07289,0.54881
1404.58310,0.52628
1403.09331,0.50378
1401.60353,0.42915
1400.11374,0.41003
1398.62395,0.36384
1397.13416,0.31768
1395.64437,0.27003
1394.15458,0.23488
1392.66479,0.19996
1391.17501,0.15884
1389.68522,0.12720
1388.19543,0.09344
1386.70564,0.08605
1385.21585,0.07868
1383.72606,0.05789
1382.23628,0.05476
1380.74649,0.03144
1379.25670,0.03374
1377.76691,0.03090
1376.27712,0.03411
1374.78733,0.00637
1373.29755,0.00210
1371.80776,0.00256
1370.31797,0.00370
1368.82818,0.00421
1367.33839,0.00475
1365.84860,0.00940
1364.35881,0.04353
1362.86903,0.04178
1361.37924,0.06263
1359.88945,0.08953
1358.39966,0.09581
1356.90987,0.13608
1355.42008,0.17918
1353.93030,0.22295
1352.44051,0.25416
1350.95072,0.28540
1349.46093,0.36215
1347.97114,0.44386
1346.48135,0.51356
1344.99156,0.57726
1343.50178,0.61130
1342.01199,0.68494
1340.52220,0.74313
1339.03241,0.79509
1337.54262,0.83741
1336.05283,0.86975
1334.56305,0.90212
1333.07326,0.90665
1331.58347,0.89982
1330.09368,0.87280
1328.60389,0.87461
1327.11410,0.88979
1325.62432,0.86563
1324.13453,0.81870
1322.64474,0.78341
1321.15495,0.74299
1319.66516,0.70957
1318.17537,0.67618
1316.68558,0.58766
1315.19580,0.57572
1313.70601,0.51305
1312.21622,0.50567
1310.72643,0.46821
1309.23664,0.44733
1307.74685,0.40411
1306.25707,0.38092
1304.76728,0.35678
1303.27749,0.33267
1301.78770,0.30245
1300.29791,0.26537
1298.80812,0.21327
1297.31834,0.18656
1295.82855,0.15021
1294.33876,0.13172
1292.84897,0.10552
1291.35918,0.08752
1289.86939,0.08922
1288.37960,0.09094
1286.88982,0.08075
1285.40003,0.07295
1283.91024,0.06281
1282.42045,0.06172
1280.93066,0.05830
1279.44087,0.05361
1277.95109,0.04528
1276.46130,0.04494
1274.97151,0.04194
1273.48172,0.03896
1271.99193,0.03310
1270.50214,0.01866
1269.01235,0.01801
1267.52257,0.03287
1266.03278,0.01786
1264.54299,0.02524
1263.05320,0.01458
1261.56341,0.01846
1260.07362,0.02236
1258.58384,0.01479
1257.09405,0.01476
1255.60426,0.00680
1254.11447,0.01242
1252.62468,0.01354
1251.13489,0.00221
1249.64511,0.00210
1248.15532,0.00357
1246.66553,0.01356
1245.17574,0.02357
1243.68595,0.01393
1242.19616,0.01937
1240.70637,0.00053
1239.21659,0.03552
1237.72680,0.02494
1236.23701,0.00922
1234.74722,0.01202
1233.25743,0.00818
1231.76764,0.00437
1230.27786,0.00380
1228.78807,0.01014
1227.29828,0.00210
1225.80849,0.01288
1224.31870,0.01595
1222.82891,0.01410
1221.33912,0.01722
1219.84934,0.01886
1218.35955,0.02052
1216.86976,0.01532
1215.37997,0.04263
1213.89018,0.05597
1212.40039,0.06203
1210.91061,0.05650
1209.42082,0.06326
1207.93103,0.06724
1206.44124,0.07125
1204.95145,0.06496
1203.46166,0.06471
1201.97188,0.04664
1200.48209,0.07053
1198.99230,0.04778
1197.50251,0.03688
1196.01272,0.02084
1194.52293,0.02956
1193.03314,0.03830
1191.54336,0.04341
1190.05357,0.02102
1188.56378,0.02252
1187.07399,0.01502
1185.58420,0.01334
1184.09441,0.00911
1182.60463,0.01351
1181.11484,0.01793
1179.62505,0.02281
1178.13526,0.03545
1176.64547,0.02403
1175.15568,0.00210
1173.66589,0.00672
1172.17611,0.01288
1170.68632,0.01067
1169.19653,0.00848
1167.70674,0.02353
1166.21695,0.03408
1164.72716,0.04186
1163.23738,0.03031
1161.74759,0.04158
1160.25780,0.04320
1158.76801,0.04485
1157.27822,0.04651
1155.78843,0.06433
1154.29865,0.08282
1152.80886,0.08951
1151.31907,0.09815
1149.82928,0.11242
1148.33949,0.13401
1146.84970,0.14553
1145.35991,0.15707
1143.87013,0.15014
1142.38034,0.16903
1140.89055,0.17635
1139.40076,0.18282
1137.91097,0.19642
1136.42118,0.22574
1134.93140,0.23981
1133.44161,0.25391
1131.95182,0.24395
1130.46203,0.24025
1128.97224,0.25528
1127.48245,0.26561
1125.99266,0.27553
1124.50288,0.29042
1123.01309,0.27372
1121.52330,0.25704
1120.03351,0.23846
1118.54372,0.24528
1117.05393,0.25126
1115.56415,0.24070
1114.07436,0.24307
1112.58457,0.25171
1111.09478,0.26037
1109.60499,0.25464
1108.11520,0.25775
1106.62542,0.24455
1105.13563,0.24169
1103.64584,0.22703
1102.15605,0.22014
1100.66626,0.21219
1099.17647,0.20427
1097.68668,0.21035
1096.19690,0.21130
1094.70711,0.22753
1093.21732,0.21261
1091.72753,0.19815
1090.23774,0.20134
1088.74795,0.20456
1087.25817,0.20629
1085.76838,0.18418
1084.27859,0.19392
1082.78880,0.20713
1081.29901,0.19154
1079.80922,0.18330
1078.31943,0.19077
1076.82965,0.19827
1075.33986,0.20557
1073.85007,0.20839
1072.36028,0.22134
1070.87049,0.22248
1069.38070,0.23074
1067.89092,0.25613
1066.40113,0.28154
1064.91134,0.34622
1063.42155,0.43781
1061.93176,0.54921
1060.44197,0.63697
1058.95219,0.70584
1057.46240,0.75129
1055.97261,0.79676
1054.48282,0.86806
1052.99303,0.93875
1051.50324,0.98730
1050.01345,0.95180
1048.52367,0.95696
1047.03388,0.94366
1045.54409,0.93038
1044.05430,0.86637
1042.56451,0.80109
1041.07472,0.73735
1039.58494,0.68266
1038.09515,0.63659
1036.60536,0.59475
1035.11557,0.55293
1033.62578,0.47855
1032.13599,0.43581
1030.64620,0.37611
1029.15642,0.32998
1027.66663,0.29785
1026.17684,0.26574
1024.68705,0.20743
1023.19726,0.17688
1021.70747,0.16678
1020.21769,0.14703
1018.72790,0.13849
1017.23811,0.12707
1015.74832,0.11567
1014.25853,0.09193
1012.76874,0.09811
1011.27896,0.08625
1009.78917,0.08495
1008.29938,0.06841
1006.80959,0.06103
1005.31980,0.05368
1003.83001,0.02301
1002.34022,0.00850
1000.85044,0.00799
999.36065,0.02816
997.87086,0.03705
996.38107,0.04597
994.89128,0.04965
993.40149,0.07464
991.91171,0.09621
990.42192,0.10362
988.93213,0.11728
987.44234,0.11344
985.95255,0.10963
984.46276,0.10832
982.97297,0.10853
981.48319,0.09178
979.99340,0.06624
978.50361,0.05868
977.01382,0.05114
975.52403,0.03513
974.03424,0.03119
972.54446,0.01115
971.05467,0.01715
969.56488,0.00210
968.07509,0.00478
966.58530,0.00749
965.09551,0.01538
963.60573,0.00287
962.11594,0.00157
960.62615,0.01542
959.13636,0.01133
957.64657,0.00727
956.15678,0.01517
954.66699,0.02287
953.17721,0.03190
951.68742,0.05578
950.19763,0.06442
948.70784,0.07309
947.21805,0.06070
945.72826,0.06490
944.23848,0.06654
942.74869,0.09960
941.25890,0.11592
939.76911,0.11505
938.27932,0.11421
936.78953,0.14586
935.29974,0.19238
933.80996,0.21312
932.32017,0.23968
930.83038,0.24208
929.34059,0.24450
927.85080,0.24340
926.36101,0.26835
924.87123,0.27202
923.38144,0.32196
921.89165,0.35526
920.40186,0.38858
918.91207,0.46913
917.42228,0.57594
915.93250,0.73611
914.44271,0.92189
912.95292,1.03942
911.46313,1.15698
909.97334,1.42950
908.48355,1.65130
906.99376,1.78559
905.50398,1.87647
904.01419,1.89253
902.52440,1.90861
901.03461,1.96838
899.54482,2.00000
898.05503,1.87315
896.56525,1.69600
895.07546,1.54855
893.58567,1.40113
892.09588,1.12556
890.60609,0.91453
889.11630,0.67535
887.62651,0.52265
886.13673,0.45158
884.64694,0.38054
883.15715,0.26038
881.66736,0.18950
880.17757,0.13971
878.68778,0.11555
877.19800,0.09140
875.70821,0.06276
874.21842,0.02770
872.72863,0.03288
871.23884,0.00689
869.74905,0.00448
868.25927,0.00210
866.76948,0.01922
865.27969,0.03077
863.78990,0.05052
862.30011,0.04406
860.81032,0.04289
859.32053,0.04175
857.83075,0.06246
856.34096,0.06125
854.85117,0.08266
853.36138,0.09505
851.87159,0.10543
850.38180,0.11583
848.89202,0.12980
847.40223,0.15756
845.91244,0.17137
844.42265,0.17821
842.93286,0.18507
841.44307,0.18992
839.95329,0.20984
838.46350,0.21582
836.97371,0.23708
835.48392,0.22536
833.99413,0.21366
832.50434,0.23328
831.01455,0.22690
829.52477,0.21452
828.03498,0.17722
826.54519,0.15736
825.05540,0.13753
823.56561,0.14074
822.07582,0.13257
820.58604,0.10636
819.09625,0.10522
817.60646,0.10412
816.11667,0.10207
814.62688,0.11058
813.13709,0.08922
811.64730,0.10273
810.15752,0.10368
808.66773,0.10465
807.17794,0.12576
805.68815,0.12194
804.19836,0.11901
802.70857,0.12492
801.21879,0.13085
799.72900,0.12090
798.23921,0.10516
796.74942,0.10321
795.25963,0.10968
793.76984,0.11616
792.28006,0.13041
790.79027,0.13759
789.30048,0.14157
787.81069,0.15719
786.32090,0.17046
784.83111,0.18376
783.34132,0.20720
781.85154,0.27732
780.36175,0.30789
778.87196,0.31946
777.38217,0.33106
775.89238,0.35203
774.40259,0.35647
772.91281,0.37254
771.42302,0.35434
769.93323,0.33616
768.44344,0.28607
766.95365,0.22956
765.46386,0.21285
763.97407,0.18025
762.48429,0.16230
760.99450,0.14438
759.50471,0.11293
758.01492,0.09312
756.52513,0.07957
755.03534,0.07863
753.54556,0.07771
752.05577,0.06487
750.56598,0.06690
749.07619,0.04014
747.58640,0.03781
746.09661,0.03551
744.60683,0.03592
743.11704,0.02495
741.62725,0.01917
740.13746,0.01062
738.64767,0.00210
737.15788,0.02177
735.66809,0.02125
734.17831,0.00119
732.68852,0.00098
731.19873,0.00080
729.70894,0.01590
728.21915,0.01361
726.72936,0.00941
725.23958,0.01061
723.74979,0.00786
722.26000,0.00513
720.77021,0.01213
719.28042,0.00561
717.79063,0.00750
716.30084,0.00478
714.81106,0.00210
713.32127,0.01936
711.83148,0.03601
710.34169,0.02924
708.85190,0.02787
707.36211,0.02652
705.87233,0.02993
704.38254,0.04541
702.89275,0.03897
701.40296,0.05536
699.91317,0.07177
698.42338,0.05681
696.93360,0.06445
695.44381,0.11168
693.95402,0.11636
692.46423,0.12107
690.97444,0.13117
689.48465,0.15743
687.99486,0.17705
686.50508,0.18916
685.01529,0.20130
683.52550,0.22916
682.03571,0.26134
680.54592,0.28517
679.05613,0.27364
677.56635,0.26213
676.07656,0.26302
674.58677,0.24070
673.09698,0.23454
671.60719,0.22045
670.11740,0.20638
668.62761,0.20007
667.13783,0.17315
665.64804,0.15528
664.15825,0.13744
662.66846,0.12822
661.17867,0.10655
659.68888,0.10254
658.19910,0.08179
656.70931,0.06105
655.21952,0.05454
653.72973,0.06332
652.23994,0.03857
650.75015,0.04342
649.26037,0.04829
647.77058,0.04233
646.28079,0.04456
644.79100,0.04058
643.30121,0.05136
641.81142,0.06216
640.32163,0.07051
638.83185,0.06039
637.34206,0.04105
635.85227,0.03603
634.36248,0.03104
632.87269,0.00210
631.38290,0.01796
629.89312,0.02869
628.40333,0.01912
626.91354,0.00957
625.42375,0.01220
623.93396,0.01399
622.44417,0.02323
620.95438,0.03249
619.46460,0.03995
617.97481,0.06291
616.48502,0.07966
614.99523,0.10343
613.50544,0.12722
612.01565,0.14878
610.52587,0.16907
609.03608,0.19110
607.54629,0.21403
606.05650,0.23697
604.56671,0.30101
603.07692,0.37691
601.58714,0.39864
600.09735,0.42039
598.60756,0.44002
597.11777,0.44225
595.62798,0.46429
594.13819,0.45721
592.64840,0.45016
591.15862,0.41421
589.66883,0.35162
588.17904,0.29636
586.68925,0.25833
585.19946,0.22033
583.70967,0.15546
582.21989,0.16482
580.73010,0.14398
579.24031,0.12317
577.75052,0.10701
576.26073,0.07668
574.77094,0.07218
573.28115,0.06706
571.79137,0.06196
570.30158,0.07474
568.81179,0.09614
567.32200,0.10531
565.83221,0.11450
564.34242,0.12630
562.85264,0.13619
561.36285,0.13556
559.87306,0.13313
558.38327,0.13073
556.89348,0.12502
555.40369,0.17330
553.91391,0.17474
552.42412,0.17619
550.93433,0.19208
549.44454,0.18563
547.95475,0.19404
546.46496,0.21011
544.97517,0.22620
543.48539,0.24415
541.99560,0.26578
540.50581,0.29226
539.01602,0.31878
537.52623,0.36564
536.03644,0.39855
534.54666,0.42481
533.05687,0.45551
531.56708,0.48623
530.07729,0.52934
528.58750,0.54602
527.09771,0.58542
525.60792,0.62484
524.11814,0.71751
522.62835,0.75537
521.13856,0.83863
519.64877,0.85352
518.15898,0.86844
516.66919,0.94640
515.17941,0.92459
513.68962,0.92055
512.19983,0.91653
510.71004,0.85803
509.22025,0.80277
507.73046,0.70452
506.24068,0.66588
504.75089,0.62725
503.26110,0.53682
501.77131,0.41954
500.28152,0.37389
498.79173,0.32826
497.30194,0.26417
495.81216,0.20375
494.32237,0.19132
492.83258,0.17891
491.34279,0.13556
489.85300,0.08083
488.36321,0.08033
486.87343,0.08490
485.38364,0.08949
483.89385,0.08497
482.40406,0.10112
480.91427,0.10170
479.42448,0.10231
477.93469,0.14154
476.44491,0.16961
474.95512,0.17362
473.46533,0.17766
471.97554,0.19484
470.48575,0.19161
468.99596,0.20820
467.50618,0.19265
466.01639,0.17714
464.52660,0.11616
463.03681,0.07821
461.54702,0.06298
460.05723,0.04778
458.56745,0.04130
457.07766,0.02238
455.58787,0.01972
454.09808,0.01709
452.60829,0.03179
451.11850,0.01834
449.62871,0.02105
448.13893,0.02378
446.64914,0.02933
445.15935,0.00243
443.66956,0.01061
442.17977,0.00677
440.68998,0.00295
439.20020,0.02368
437.71041,0.05260
436.22062,0.05338
434.73083,0.05417
433.24104,0.03973
431.75125,0.05456
430.26146,0.03930
428.77168,0.02407
427.28189,0.03359
425.79210,0.05561
424.30231,0.05529
422.81252,0.05499
421.32273,0.05085
419.83295,0.05426
418.34316,0.04866
416.85337,0.04308
415.36358,0.01301
413.87379,0.01781
412.38400,0.00994
410.89422,0.00210
409.40443,0.03849
407.91464,0.02845
406.42485,0.04596
404.93506,0.03339
403.44527,0.02085
401.95548,0.03413
400.46570,0.02766
398.97591,0.02282
397.48612,0.01801
395.99633,0.02859
394.50654,0.03340
393.01675,0.03393
391.52697,0.03448
390.03718,0.03269
388.54739,0.01889
387.05760,0.01048
385.56781,0.00210
384.07802,0.01101
382.58824,0.01908
381.09845,0.02427
379.60866,0.02949
378.11887,0.01785
376.62908,0.00000
375.13929,0.00411
373.64950,0.00824
372.15972,0.02165
370.66993,0.02131
369.18014,0.01294
367.69035,0.00459
366.20056,0.01475
364.71077,0.02579
363.22099,0.03493
361.73120,0.04408
360.24141,0.03219
358.75162,0.03086
357.26183,0.04074
355.77204,0.05064
354.28225,0.02594
352.79247,0.05632
351.30268,0.06231
349.81289,0.06833
348.32310,0.07212
346.83331,0.07012
345.34352,0.05009
343.85374,0.03007
342.36395,0.03245
340.87416,0.03313
339.38437,0.01760
337.89458,0.00210
336.40479,0.02957
334.91501,0.01771
333.42522,0.02329
331.93543,0.02890
330.44564,0.01754
328.95585,0.02771
327.46606,0.01984
325.97627,0.01200
324.48649,0.02825
322.99670,0.03463
321.50691,0.05738
320.01712,0.08015
318.52733,0.06832
317.03754,0.09415
315.54776,0.08098
314.05797,0.06783
312.56818,0.05029
311.07839,0.04654
309.58860,0.05658
308.09881,0.06665
306.60902,0.04964
305.11924,0.04104
303.62945,0.02516
302.13966,0.00930
300.64987,0.00210
299.16008,0.00210
