1778.52000,0.01427
1777.03021,0.01260
1775.54042,0.01625
1774.05063,0.02021
1772.56085,0.01442
1771.07106,0.02233
1769.58127,0.01212
1768.09148,0.00947
1766.60169,0.00880
1765.11190,0.01206
1763.62212,0.01032
1762.13233,0.01530
1760.64254,0.01612
1759.15275,0.00383
1757.66296,0.01168
1756.17317,0.00000
1754.68339,0.00817
1753.19360,0.01581
1751.70381,0.01314
1750.21402,0.00518
1748.72423,0.00479
1747.23444,0.00945
1745.74465,0.00715
1744.25487,0.01186
1742.76508,0.00291
1741.27529,0.00403
1739.78550,0.00964
1738.29571,0.00383
1736.80592,0.01374
1735.31614,0.00831
1733.82635,0.00291
1732.33656,0.00395
1730.84677,0.00976
1729.35698,0.00610
1727.86719,0.00973
1726.37740,0.00640
1724.88762,0.01007
1723.39783,0.00874
1721.90804,0.00910
1720.41825,0.01285
1718.92846,0.00405
1717.43867,0.01340
1715.94889,0.00965
1714.45910,0.01765
1712.96931,0.01171
1711.47952,0.01054
1709.98973,0.01275
1708.49994,0.00912
1707.01016,0.01151
1705.52037,0.01393
1704.03058,0.02293
1702.54079,0.00152
1701.05100,0.01187
1699.56121,0.00548
1698.07142,0.01727
1696.58164,0.01596
1695.09185,0.00993
1693.60206,0.01369
1692.11227,0.00603
1690.62248,0.01543
1689.13269,0.01591
1687.64291,0.01977
1686.15312,0.02030
1684.66333,0.01275
1683.17354,0.00858
1681.68375,0.01728
1680.19396,0.02461
1678.70417,0.01659
1677.21439,0.01336
1675.72460,0.01461
1674.23481,0.01896
1672.74502,0.02221
1671.25523,0.02744
1669.76544,0.04164
1668.27566,0.02569
1666.78587,0.03909
1665.29608,0.04470
1663.80629,0.04782
1662.31650,0.05012
1660.82671,0.04825
1659.33693,0.04753
1657.84714,0.06610
1656.35735,0.05369
1654.86756,0.05723
1653.37777,0.05827
1651.88798,0.06800
1650.39819,0.07105
1648.90841,0.08334
1647.41862,0.06437
1645.92883,0.06734
1644.43904,0.07035
1642.94925,0.07072
1641.45946,0.07474
1639.96968,0.05785
1638.47989,0.07114
1636.99010,0.07691
1635.50031,0.07740
1634.01052,0.07456
1632.52073,0.08403
1631.03094,0.08068
1629.54116,0.07847
1628.05137,0.09723
1626.56158,0.08613
1625.07179,0.08176
1623.58200,0.09053
1622.09221,0.08481
1620.60243,0.08972
1619.11264,0.09941
1617.62285,0.09571
1616.13306,0.08226
1614.64327,0.07693
1613.15348,0.07079
1611.66370,0.08255
1610.17391,0.07953
1608.68412,0.07318
1607.19433,0.09394
1605.70454,0.08848
1604.21475,0.08960
1602.72496,0.09074
1601.23518,0.09401
1599.74539,0.09813
1598.25560,0.09725
1596.76581,0.11315
1595.27602,0.10003
1593.78623,0.08721
1592.29645,0.09173
1590.80666,0.07756
1589.31687,0.06733
1587.82708,0.08030
1586.33729,0.08464
1584.84750,0.09402
1583.35771,0.09114
1581.86793,0.07767
1580.37814,0.07652
1578.88835,0.08432
1577.39856,0.07567
1575.90877,0.07179
1574.41898,0.06682
1572.92920,0.07164
1571.43941,0.05722
1569.94962,0.05790
1568.45983,0.05861
1566.97004,0.04426
1565.48025,0.03217
1563.99047,0.03602
1562.50068,0.03374
1561.01089,0.02619
1559.52110,0.03206
1558.03131,0.01255
1556.54152,0.01260
1555.05173,0.01631
1553.56195,0.01307
1552.07216,0.01878
1550.58237,0.01614
1549.09258,0.01743
1547.60279,0.01008
1546.11300,0.00416
1544.62322,0.00859
1543.13343,0.00383
1541.64364,0.01489
1540.15385,0.01257
1538.66406,0.01027
1537.17427,0.01833
1535.68448,0.01916
1534.19470,0.02084
1532.70491,0.02366
1531.21512,0.01925
1529.72533,0.00815
1528.23554,0.01970
1526.74575,0.03044
1525.25597,0.03562
1523.76618,0.03467
1522.27639,0.03961
1520.78660,0.04625
1519.29681,0.04091
1517.80702,0.03335
1516.31724,0.03616
1514.82745,0.04792
1513.33766,0.04532
1511.84787,0.04275
1510.35808,0.04899
1508.86829,0.05862
1507.37850,0.05346
1505.88872,0.05475
1504.39893,0.07031
1502.90914,0.06746
1501.41935,0.08306
1499.92956,0.06517
1498.43977,0.07580
1496.94999,0.06298
1495.46020,0.09041
1493.97041,0.09245
1492.48062,0.11155
1490.99083,0.12201
1489.50104,0.12104
1488.01125,0.11633
1486.52147,0.11164
1485.03168,0.14649
1483.54189,0.15763
1482.05210,0.15930
1480.56231,0.16350
1479.07252,0.17890
1477.58274,0.22336
1476.09295,0.22065
1474.60316,0.20484
1473.11337,0.23318
1471.62358,0.22915
1470.13379,0.22290
1468.64401,0.23176
1467.15422,0.23198
1465.66443,0.25262
1464.17464,0.27328
1462.68485,0.29675
1461.19506,0.33701
1459.70527,0.37282
1458.21549,0.44328
1456.72570,0.49506
1455.23591,0.54016
1453.74612,0.59226
1452.25633,0.67399
1450.76654,0.68621
1449.27676,0.70598
1447.78697,0.70093
1446.29718,0.67299
1444.80739,0.65946
1443.31760,0.64596
1441.82781,0.61418
1440.33802,0.54920
1438.84824,0.51803
1437.35845,0.46566
1435.86866,0.47085
1434.37887,0.50314
1432.88908,0.55641
1431.39929,0.59602
1429.90951,0.66582
1428.41972,0.75742
1426.92993,0.83815
1425.44014,0.86221
1423.95035,0.86758
1422.46056,0.87298
1420.97078,0.91666
1419.48099,0.92657
1417.99120,0.97840
1416.50141,0.98473
1415.01162,0.96930
1413.52183,0.90027
1412.03204,0.84047
1410.54226,0.75976
1409.05247,0.66818
1407.56268,0.61013
1406.07289,0.56244
1404.58310,0.54661
1403.09331,0.53081
1401.60353,0.45889
1400.11374,0.41186
1398.62395,0.37099
1397.13416,0.30473
1395.64437,0.28178
1394.15458,0.23819
1392.66479,0.20551
1391.17501,0.17453
1389.68522,0.13716
1388.19543,0.11014
1386.70564,0.09529
1385.21585,0.08047
1383.72606,0.05212
1382.23628,0.03972
1380.74649,0.04158
1379.25670,0.02811
1377.76691,0.02583
1376.27712,0.01743
1374.78733,0.00905
1373.29755,0.00992
1371.80776,0.01136
1370.31797,0.00920
1368.82818,0.00651
1367.33839,0.00383
1365.84860,0.01907
1364.35881,0.01449
1362.86903,0.03257
1361.37924,0.04452
1359.88945,0.07214
1358.39966,0.09112
1356.90987,0.13051
1355.42008,0.18669
1353.93030,0.24149
1352.44051,0.26978
1350.95072,0.29809
1349.46093,0.38648
1347.97114,0.46008
1346.48135,0.54796
1344.99156,0.61463
1343.50178,0.66820
1342.01199,0.72989
1340.52220,0.73714
1339.03241,0.82122
1337.54262,0.86651
1336.05283,0.90106
1334.56305,0.93564
1333.07326,0.98379
1331.58347,0.94566
1330.09368,0.93855
1328.60389,0.91611
1327.11410,0.90291
1325.62432,0.89504
1324.13453,0.86317
1322.64474,0.82379
1321.15495,0.76096
1319.66516,0.72205
1318.17537,0.68315
1316.68558,0.62794
1315.19580,0.57834
1313.70601,0.53267
1312.21622,0.50462
1310.72643,0.49838
1309.23664,0.46256
1307.74685,0.43737
1306.25707,0.40691
1304.76728,0.38177
1303.27749,0.35665
1301.78770,0.30503
1300.29791,0.26460
1298.80812,0.22643
1297.31834,0.19303
1295.82855,0.16216
1294.33876,0.12853
1292.84897,0.11307
1291.35918,0.08005
1289.86939,0.08852
1288.37960,0.09701
1286.88982,0.08863
1285.40003,0.08754
1283.91024,0.06775
1282.42045,0.05749
1280.93066,0.06512
1279.44087,0.06915
1277.95109,0.04304
1276.46130,0.03650
1274.97151,0.03668
1273.48172,0.03689
1271.99193,0.01730
1270.50214,0.02230
1269.01235,0.02286
1267.52257,0.03043
1266.03278,0.01567
1264.54299,0.02300
1263.05320,0.03120
1261.56341,0.01651
1260.07362,0.00185
1258.58384,0.01431
1257.09405,0.00668
1255.60426,0.01108
1254.11447,0.02109
1252.62468,0.01772
1251.13489,0.00655
1249.64511,0.00909
1248.15532,0.00383
1246.66553,0.00790
1245.17574,0.01198
1243.68595,0.03034
1242.19616,0.02051
1240.70637,0.02104
1239.21659,0.00818
1237.72680,0.01769
1236.23701,0.02527
1234.74722,0.00383
1233.25743,0.00936
1231.76764,0.01491
1230.27786,0.01071
1228.78807,0.02385
1227.29828,0.02528
1225.80849,0.00747
1224.31870,0.02012
1222.82891,0.02022
1221.33912,0.02398
1219.84934,0.02553
1218.35955,0.02710
1216.86976,0.01892
1215.37997,0.02501
1213.89018,0.03978
1212.40039,0.04703
1210.91061,0.05375
1209.42082,0.05379
1207.93103,0.05804
1206.44124,0.06231
1204.95145,0.06075
1203.46166,0.06116
1201.97188,0.05908
1200.48209,0.05423
1198.99230,0.06616
1197.50251,0.04684
1196.01272,0.03843
1194.52293,0.03619
1193.03314,0.03397
1191.54336,0.04099
1190.05357,0.02039
1188.56378,0.02243
1187.07399,0.02282
1185.58420,0.01625
1184.09441,0.00328
1182.60463,0.01121
1181.11484,0.01917
1179.62505,0.00383
1178.13526,0.02453
1176.64547,0.02626
1175.15568,0.01181
1173.66589,0.00689
1172.17611,0.01399
1170.68632,0.00953
1169.19653,0.00509
1167.70674,0.00864
1166.21695,0.00607
1164.72716,0.02474
1163.23738,0.02947
1161.74759,0.03646
1160.25780,0.05577
1158.76801,0.06057
1157.27822,0.06540
1155.78843,0.05964
1154.29865,0.08574
1152.80886,0.08086
1151.31907,0.08857
1149.82928,0.09743
1148.33949,0.13032
1146.84970,0.13713
1145.35991,0.14396
1143.87013,0.15486
1142.38034,0.15769
1140.89055,0.14127
1139.40076,0.17068
1137.91097,0.19256
1136.42118,0.21420
1134.93140,0.21016
1133.44161,0.20615
1131.95182,0.21780
1130.46203,0.22891
1128.97224,0.26211
1127.48245,0.25540
1125.99266,0.26546
1124.50288,0.25545
1123.01309,0.25146
1121.52330,0.24749
1120.03351,0.25514
1118.54372,0.26113
1117.05393,0.25319
1115.56415,0.24750
1114.07436,0.23709
1112.58457,0.24513
1111.09478,0.25320
1109.60499,0.24565
1108.11520,0.23561
1106.62542,0.22560
1105.13563,0.23934
1103.64584,0.23580
1102.15605,0.21692
1100.66626,0.21091
1099.17647,0.20492
1097.68668,0.21794
1096.19690,0.20670
1094.70711,0.19296
1093.21732,0.22979
1091.72753,0.21582
1090.23774,0.19867
1088.74795,0.18153
1087.25817,0.17489
1085.76838,0.16101
1084.27859,0.16336
1082.78880,0.16489
1081.29901,0.16868
1079.80922,0.16747
1078.31943,0.17507
1076.82965,0.18270
1075.33986,0.20306
1073.85007,0.17597
1072.36028,0.20252
1070.87049,0.20116
1069.38070,0.22693
1067.89092,0.23162
1066.40113,0.23634
1064.91134,0.31664
1063.42155,0.38941
1061.93176,0.47226
1060.44197,0.57469
1058.95219,0.61486
1057.46240,0.66496
1055.97261,0.71509
1054.48282,0.78019
1052.99303,0.83581
1051.50324,0.83336
1050.01345,0.82927
1048.52367,0.85592
1047.03388,0.85298
1045.54409,0.85007
1044.05430,0.80809
1042.56451,0.72116
1041.07472,0.67168
1039.58494,0.63982
1038.09515,0.59625
1036.60536,0.55801
1035.11557,0.51980
1033.62578,0.44921
1032.13599,0.41830
1030.64620,0.39468
1029.15642,0.31243
1027.66663,0.28257
1026.17684,0.25274
1024.68705,0.21105
1023.19726,0.18085
1021.70747,0.16938
1020.21769,0.15067
1018.72790,0.10936
1017.23811,0.10661
1015.74832,0.10389
1014.25853,0.09729
1012.76874,0.07842
1011.27896,0.06795
1009.78917,0.05527
1008.29938,0.04596
1006.80959,0.03905
1005.31980,0.03217
1003.83001,0.01511
1002.34022,0.02210
1000.85044,0.02492
999.36065,0.04368
997.87086,0.04934
996.38107,0.05503
994.89128,0.05682
993.40149,0.06898
991.91171,0.07278
990.42192,0.08721
988.93213,0.11564
987.44234,0.11280
985.95255,0.10999
984.46276,0.10414
982.97297,0.08406
981.48319,0.08048
979.99340,0.06520
978.50361,0.05985
977.01382,0.05453
975.52403,0.03932
974.03424,0.03083
972.54446,0.01901
971.05467,0.00918
969.56488,0.00383
968.07509,0.01033
966.58530,0.01685
965.09551,0.02144
963.60573,0.00371
962.11594,0.01835
960.62615,0.02129
959.13636,0.01769
957.64657,0.01412
956.15678,0.01433
954.66699,0.02128
953.17721,0.04025
951.68742,0.03328
950.19763,0.04658
948.70784,0.05990
947.21805,0.07813
945.72826,0.06232
944.23848,0.08674
942.74869,0.11538
941.25890,0.13035
939.76911,0.13753
938.27932,0.14473
936.78953,0.16117
935.29974,0.19356
933.80996,0.21787
932.32017,0.24304
930.83038,0.24156
929.34059,0.24010
927.85080,0.27372
926.36101,0.26659
924.87123,0.29551
923.38144,0.35098
921.89165,0.38986
920.40186,0.42876
918.91207,0.49073
917.42228,0.63902
915.93250,0.78202
914.44271,0.99069
912.95292,1.09380
911.46313,1.19694
909.97334,1.44198
908.48355,1.68704
906.99376,1.88577
905.50398,1.92337
904.01419,1.93768
902.52440,1.95200
901.03461,1.99358
899.54482,2.00000
898.05503,1.87182
896.56525,1.70234
895.07546,1.55884
893.58567,1.41538
892.09588,1.16301
890.60609,0.89838
889.11630,0.70304
887.62651,0.51526
886.13673,0.45514
884.64694,0.39504
883.15715,0.27156
881.66736,0.18051
880.17757,0.15483
878.68778,0.13421
877.19800,0.11360
875.70821,0.07459
874.21842,0.05403
872.72863,0.04048
871.23884,0.02277
869.74905,0.02016
868.25927,0.01757
866.76948,0.00383
865.27969,0.00557
863.78990,0.02745
862.30011,0.05632
860.81032,0.05381
859.32053,0.05131
857.83075,0.05205
856.34096,0.06790
854.85117,0.08154
853.36138,0.08821
851.87159,0.09910
850.38180,0.11001
848.89202,0.09833
847.40223,0.13135
845.91244,0.17110
844.42265,0.17275
842.93286,0.17442
841.44307,0.18296
839.95329,0.18538
838.46350,0.20207
836.97371,0.22492
835.48392,0.21680
833.99413,0.20870
832.50434,0.19923
831.01455,0.20849
829.52477,0.20744
828.03498,0.17877
826.54519,0.15445
825.05540,0.13015
823.56561,0.11439
822.07582,0.10955
820.58604,0.11004
819.09625,0.11321
817.60646,0.11640
816.11667,0.10495
814.62688,0.11168
813.13709,0.10781
811.64730,0.11794
810.15752,0.10798
808.66773,0.09805
807.17794,0.10545
805.68815,0.10925
804.19836,0.12507
802.70857,0.13045
801.21879,0.13586
799.72900,0.12355
798.23921,0.12104
796.74942,0.10040
795.25963,0.10589
793.76984,0.11141
792.28006,0.12855
790.79027,0.14431
789.30048,0.16149
787.81069,0.16585
786.32090,0.16883
784.83111,0.17184
783.34132,0.19805
781.85154,0.25193
780.36175,0.28797
778.87196,0.30964
777.38217,0.33134
775.89238,0.33560
774.40259,0.32928
772.91281,0.32465
771.42302,0.31949
769.93323,0.31436
768.44344,0.26316
766.95365,0.21199
765.46386,0.17201
763.97407,0.15077
762.48429,0.13737
760.99450,0.12400
759.50471,0.10506
758.01492,0.10123
756.52513,0.08122
755.03534,0.07450
753.54556,0.06781
752.05577,0.06100
750.56598,0.06119
749.07619,0.03488
747.58640,0.02674
746.09661,0.01863
744.60683,0.03205
743.11704,0.03850
741.62725,0.01706
740.13746,0.01225
738.64767,0.00746
737.15788,0.02128
735.66809,0.00383
734.17831,0.01084
732.68852,0.01439
731.19873,0.01796
729.70894,0.02113
728.21915,0.02377
726.72936,0.01665
725.23958,0.00873
723.74979,0.00627
722.26000,0.00383
720.77021,0.00520
719.28042,0.01245
717.79063,0.00465
716.30084,0.00525
714.81106,0.00587
713.32127,0.01545
711.83148,0.02925
710.34169,0.00397
708.85190,0.01697
707.36211,0.03000
705.87233,0.03272
704.38254,0.04859
702.89275,0.05219
701.40296,0.05177
699.91317,0.05137
698.42338,0.05895
696.93360,0.05985
695.44381,0.09988
693.95402,0.10558
692.46423,0.11130
690.97444,0.12822
689.48465,0.15717
687.99486,0.18027
686.50508,0.18846
685.01529,0.19668
683.52550,0.21399
682.03571,0.24836
680.54592,0.27326
679.05613,0.27263
677.56635,0.27202
676.07656,0.26264
674.58677,0.23597
673.09698,0.23474
671.60719,0.22487
670.11740,0.21502
668.62761,0.18872
667.13783,0.16999
665.64804,0.15030
664.15825,0.13063
662.66846,0.12844
661.17867,0.10533
659.68888,0.08085
658.19910,0.06854
656.70931,0.05625
655.21952,0.03491
653.72973,0.02979
652.23994,0.03000
650.75015,0.02716
649.26037,0.02435
647.77058,0.02770
646.28079,0.03499
644.79100,0.04676
643.30121,0.04558
641.81142,0.04442
640.32163,0.03504
638.83185,0.04245
637.34206,0.02474
635.85227,0.01557
634.36248,0.00643
632.87269,0.01348
631.38290,0.00798
629.89312,0.01033
628.40333,0.01075
626.91354,0.01119
625.42375,0.00383
623.93396,0.00548
622.44417,0.02014
620.95438,0.03483
619.46460,0.03068
617.97481,0.04527
616.48502,0.09173
614.99523,0.09128
613.50544,0.09087
612.01565,0.12175
610.52587,0.15601
609.03608,0.17633
607.54629,0.20225
606.05650,0.22820
604.56671,0.29104
603.07692,0.33547
601.58714,0.36722
600.09735,0.39899
598.60756,0.41333
597.11777,0.43327
595.62798,0.43704
594.13819,0.43176
592.64840,0.42650
591.15862,0.38678
589.66883,0.32585
588.17904,0.25964
586.68925,0.22752
585.19946,0.19543
583.70967,0.14521
582.21989,0.13718
580.73010,0.11871
579.24031,0.10025
577.75052,0.08196
576.26073,0.08073
574.77094,0.05774
573.28115,0.04846
571.79137,0.03920
570.30158,0.05091
568.81179,0.07494
567.32200,0.06798
565.83221,0.06105
564.34242,0.10805
562.85264,0.11094
561.36285,0.12782
559.87306,0.12950
558.38327,0.13120
556.89348,0.13530
555.40369,0.14557
553.91391,0.15000
552.42412,0.15445
550.93433,0.18239
549.44454,0.16175
547.95475,0.17410
546.46496,0.17878
544.97517,0.18349
543.48539,0.19534
541.99560,0.21113
540.50581,0.24258
539.01602,0.27406
537.52623,0.33795
536.03644,0.37171
534.54666,0.41554
533.05687,0.45311
531.56708,0.49071
530.07729,0.48685
528.58750,0.54782
527.09771,0.57794
525.60792,0.60809
524.11814,0.68644
522.62835,0.74806
521.13856,0.83595
519.64877,0.85949
518.15898,0.88305
516.66919,0.87438
515.17941,0.90930
513.68962,0.90291
512.19983,0.89655
510.71004,0.81675
509.22025,0.78279
507.73046,0.74633
506.24068,0.69481
504.75089,0.64332
503.26110,0.50806
501.77131,0.41277
500.28152,0.36316
498.79173,0.31358
497.30194,0.24265
495.81216,0.22063
494.32237,0.19709
492.83258,0.17357
491.34279,0.13039
489.85300,0.08388
488.36321,0.09241
486.87343,0.09329
485.38364,0.09419
483.89385,0.08268
482.40406,0.08935
480.91427,0.09409
479.42448,0.09885
477.93469,0.11034
476.44491,0.14895
474.95512,0.16816
473.46533,0.18740
471.97554,0.17022
470.48575,0.18266
468.99596,0.19318
467.50618,0.16657
466.01639,0.13998
464.52660,0.12487
463.03681,0.07180
461.54702,0.06302
460.05723,0.05426
458.56745,0.04316
457.07766,0.05302
455.58787,0.02841
454.09808,0.00383
452.60829,0.00748
451.11850,0.02177
449.62871,0.02310
448.13893,0.02444
446.64914,0.02623
445.15935,0.03419
443.66956,0.01229
442.17977,0.00842
440.68998,0.00458
439.20020,0.02883
437.71041,0.00451
436.22062,0.01303
434.73083,0.02157
433.24104,0.03837
431.75125,0.01945
430.26146,0.02094
428.77168,0.02245
427.28189,0.00779
425.79210,0.02247
424.30231,0.02252
422.81252,0.02259
421.32273,0.03791
419.83295,0.03565
418.34316,0.03146
416.85337,0.02730
415.36358,0.02036
413.87379,0.00703
412.38400,0.00542
410.89422,0.00383
409.40443,0.01032
407.91464,0.02856
406.42485,0.01331
404.93506,0.02266
403.44527,0.03204
401.95548,0.01043
400.46570,0.00366
398.97591,0.00486
397.48612,0.00609
395.99633,0.01167
394.50654,0.00946
393.01675,0.01788
391.52697,0.02547
390.03718,0.02442
388.54739,0.02228
387.05760,0.01305
385.56781,0.00383
384.07802,0.00900
382.58824,0.00247
381.09845,0.00420
379.60866,0.00595
378.11887,0.02266
376.62908,0.02208
375.13929,0.02349
373.64950,0.02491
372.15972,0.02050
370.66993,0.05269
369.18014,0.04301
367.69035,0.03336
366.20056,0.01898
364.71077,0.04881
363.22099,0.05074
361.73120,0.05269
360.24141,0.05187
358.75162,0.04549
357.26183,0.04653
355.77204,0.04759
354.28225,0.01531
352.79247,0.03443
351.30268,0.05498
349.81289,0.07555
348.32310,0.06095
346.83331,0.07961
345.34352,0.05221
343.85374,0.02484
342.36395,0.02849
340.87416,0.01736
339.38437,0.01058
337.89458,0.00383
336.40479,0.02911
334.91501,0.02955
333.42522,0.02541
331.93543,0.02130
330.44564,0.02432
328.95585,0.01509
327.46606,0.02305
325.97627,0.03103
324.48649,0.01265
322.99670,0.03766
321.50691,0.05305
320.01712,0.06847
318.52733,0.08098
317.03754,0.08625
315.54776,0.09281
314.05797,0.09938
312.56818,0.05305
311.07839,0.04976
309.58860,0.03155
308.09881,0.01336
306.60902,0.04058
305.11924,0.03236
303.62945,0.02709
302.13966,0.02184
300.64987,0.00419
299.16008,0.00383
