1778.52000,0.01983
1777.03021,0.01027
1775.54042,0.01999
1774.05063,0.02369
1772.56085,0.02300
1771.07106,0.01850
1769.58127,0.01978
1768.09148,0.01780
1766.60169,0.00896
1765.11190,0.00729
1763.62212,0.01583
1762.13233,0.01503
1760.64254,0.00354
1759.15275,0.01517
1757.66296,0.01554
1756.17317,0.01594
1754.68339,0.01362
1753.19360,0.00582
1751.70381,0.00519
1750.21402,0.00046
1748.72423,0.01418
1747.23444,0.00014
1745.74465,0.00703
1744.25487,0.00762
1742.76508,0.01181
1741.27529,0.01409
1739.78550,0.00595
1738.29571,0.01764
1736.80592,0.01504
1735.31614,0.00505
1733.82635,0.00085
1732.33656,0.00520
1730.84677,0.00573
1729.35698,0.00820
1727.86719,0.01207
1726.37740,0.01267
1724.88762,0.00284
1723.39783,0.01201
1721.90804,0.01130
1720.41825,0.01171
1718.92846,0.01023
1717.43867,0.00354
1715.94889,0.01365
1714.45910,0.01912
1712.96931,0.01140
1711.47952,0.01416
1709.98973,0.00512
1708.49994,0.01865
1707.01016,0.01502
1705.52037,0.01141
1704.03058,0.01181
1702.54079,0.00784
1701.05100,0.00774
1699.56121,0.00354
1698.07142,0.00951
1696.58164,0.01276
1695.09185,0.01630
1693.60206,0.00942
1692.11227,0.01054
1690.62248,0.01086
1689.13269,0.01422
1687.64291,0.01239
1686.15312,0.01690
1684.66333,0.02199
1683.17354,0.01472
1681.68375,0.01683
1680.19396,0.01593
1678.70417,0.01726
1677.21439,0.02797
1675.72460,0.02907
1674.23481,0.02387
1672.74502,0.03024
1671.25523,0.03196
1669.76544,0.03866
1668.27566,0.05363
1666.78587,0.05377
1665.29608,0.05834
1663.80629,0.04285
1662.31650,0.06067
1660.82671,0.05293
1659.33693,0.06886
1657.84714,0.05705
1656.35735,0.07358
1654.86756,0.07089
1653.37777,0.05886
1651.88798,0.06584
1650.39819,0.08605
1648.90841,0.07574
1647.41862,0.07399
1645.92883,0.07006
1644.43904,0.06616
1642.94925,0.08373
1641.45946,0.06832
1639.96968,0.07026
1638.47989,0.07552
1636.99010,0.07999
1635.50031,0.08502
1634.01052,0.08046
1632.52073,0.07509
1631.03094,0.07690
1629.54116,0.09276
1628.05137,0.09048
1626.56158,0.09621
1625.07179,0.08849
1623.58200,0.09619
1622.09221,0.10583
1620.60243,0.08223
1619.11264,0.09990
1617.62285,0.08212
1616.13306,0.08746
1614.64327,0.07907
1613.15348,0.07841
1611.66370,0.09455
1610.17391,0.10989
1608.68412,0.08399
1607.19433,0.08123
1605.70454,0.08426
1604.21475,0.08621
1602.72496,0.08819
1601.23518,0.09514
1599.74539,0.08479
1598.25560,0.09399
1596.76581,0.10707
1595.27602,0.09844
1593.78623,0.08461
1592.29645,0.08922
1590.80666,0.08369
1589.31687,0.07075
1587.82708,0.09634
1586.33729,0.08263
1584.84750,0.07774
1583.35771,0.08580
1581.86793,0.09031
1580.37814,0.08521
1578.88835,0.08372
1577.39856,0.07454
1575.90877,0.07144
1574.41898,0.06562
1572.92920,0.06394
1571.43941,0.04304
1569.94962,0.04498
1568.45983,0.04695
1566.97004,0.04757
1565.48025,0.03721
1563.99047,0.03375
1562.50068,0.02454
1561.01089,0.03735
1559.52110,0.02956
1558.03131,0.02509
1556.54152,0.02010
1555.05173,0.01073
1553.56195,0.02146
1552.07216,0.01021
1550.58237,0.01438
1549.09258,0.01803
1547.60279,0.01236
1546.11300,0.01000
1544.62322,0.01042
1543.13343,0.01087
1541.64364,0.00968
1540.15385,0.00660
1538.66406,0.00354
1537.17427,0.03126
1535.68448,0.02105
1534.19470,0.02462
1532.70491,0.02766
1531.21512,0.02962
1529.72533,0.02693
1528.23554,0.03582
1526.74575,0.03510
1525.25597,0.05228
1523.76618,0.04364
1522.27639,0.04657
1520.78660,0.03467
1519.29681,0.04837
1517.80702,0.03377
1516.31724,0.03349
1514.82745,0.03681
1513.33766,0.04222
1511.84787,0.04765
1510.35808,0.04445
1508.86829,0.04539
1507.37850,0.05240
1505.88872,0.05119
1504.39893,0.07420
1502.90914,0.06093
1501.41935,0.06997
1499.92956,0.07573
1498.43977,0.09003
1496.94999,0.06998
1495.46020,0.09039
1493.97041,0.09816
1492.48062,0.11256
1490.99083,0.12369
1489.50104,0.11888
1488.01125,0.12400
1486.52147,0.12915
1485.03168,0.14889
1483.54189,0.16673
1482.05210,0.17910
1480.56231,0.20359
1479.07252,0.21077
1477.58274,0.23916
1476.09295,0.23347
1474.60316,0.23082
1473.11337,0.23590
1471.62358,0.24788
1470.13379,0.24448
1468.64401,0.24633
1467.15422,0.25591
1465.66443,0.28160
1464.17464,0.30731
1462.68485,0.32548
1461.19506,0.35715
1459.70527,0.38609
1458.21549,0.47364
1456.72570,0.53041
1455.23591,0.56464
1453.74612,0.62064
1452.25633,0.68380
1450.76654,0.71563
1449.27676,0.72026
1447.78697,0.71694
1446.29718,0.70760
1444.80739,0.69250
1443.31760,0.67742
1441.82781,0.64009
1440.33802,0.57968
1438.84824,0.53057
1437.35845,0.49001
1435.86866,0.46488
1434.37887,0.48707
1432.88908,0.54587
1431.39929,0.58681
1429.90951,0.65610
1428.41972,0.76144
1426.92993,0.83106
1425.44014,0.87429
1423.95035,0.88964
1422.46056,0.90500
1420.97078,0.92768
1419.48099,0.96936
1417.99120,0.97806
1416.50141,0.99806
1415.01162,0.97683
1413.52183,0.94435
1412.03204,0.90034
1410.54226,0.80877
1409.05247,0.72741
1407.56268,0.66036
1406.07289,0.59390
1404.58310,0.57201
1403.09331,0.55014
1401.60353,0.47989
1400.11374,0.43634
1398.62395,0.39529
1397.13416,0.34107
1395.64437,0.31327
1394.15458,0.25166
1392.66479,0.21868
1391.17501,0.17253
1389.68522,0.14867
1388.19543,0.11549
1386.70564,0.10818
1385.21585,0.10090
1383.72606,0.06036
1382.23628,0.04019
1380.74649,0.03381
1379.25670,0.03679
1377.76691,0.04585
1376.27712,0.02413
1374.78733,0.00354
1373.29755,0.01962
1371.80776,0.01702
1370.31797,0.01692
1368.82818,0.01106
1367.33839,0.00523
1365.84860,0.02095
1364.35881,0.02705
1362.86903,0.03071
1361.37924,0.04952
1359.88945,0.06615
1358.39966,0.08638
1356.90987,0.14293
1355.42008,0.15881
1353.93030,0.21129
1352.44051,0.23505
1350.95072,0.25883
1349.46093,0.35896
1347.97114,0.46021
1346.48135,0.51500
1344.99156,0.59760
1343.50178,0.67829
1342.01199,0.71336
1340.52220,0.72507
1339.03241,0.79236
1337.54262,0.84152
1336.05283,0.87530
1334.56305,0.90911
1333.07326,0.94844
1331.58347,0.98586
1330.09368,0.97354
1328.60389,0.97113
1327.11410,0.91347
1325.62432,0.89544
1324.13453,0.88046
1322.64474,0.84982
1321.15495,0.79033
1319.66516,0.75067
1318.17537,0.71103
1316.68558,0.65683
1315.19580,0.61366
1313.70601,0.57327
1312.21622,0.51447
1310.72643,0.48980
1309.23664,0.46130
1307.74685,0.41329
1306.25707,0.38429
1304.76728,0.36301
1303.27749,0.34176
1301.78770,0.31943
1300.29791,0.27704
1298.80812,0.21900
1297.31834,0.18547
1295.82855,0.14755
1294.33876,0.13304
1292.84897,0.11085
1291.35918,0.11206
1289.86939,0.10504
1288.37960,0.09805
1286.88982,0.08503
1285.40003,0.08056
1283.91024,0.06813
1282.42045,0.06729
1280.93066,0.05161
1279.44087,0.05301
1277.95109,0.04810
1276.46130,0.03717
1274.97151,0.03850
1273.48172,0.03986
1271.99193,0.02790
1270.50214,0.02036
1269.01235,0.03155
1267.52257,0.04001
1266.03278,0.03805
1264.54299,0.02785
1263.05320,0.01631
1261.56341,0.01991
1260.07362,0.02354
1258.58384,0.02389
1257.09405,0.02427
1255.60426,0.00652
1254.11447,0.01382
1252.62468,0.00354
1251.13489,0.02301
1249.64511,0.00731
1248.15532,0.01913
1246.66553,0.01213
1245.17574,0.00516
1243.68595,0.01005
1242.19616,0.02265
1240.70637,0.01878
1239.21659,0.03226
1237.72680,0.02074
1236.23701,0.01721
1234.74722,0.00354
1233.25743,0.00938
1231.76764,0.01525
1230.27786,0.00793
1228.78807,0.01522
1227.29828,0.01401
1225.80849,0.02767
1224.31870,0.01853
1222.82891,0.02646
1221.33912,0.02039
1219.84934,0.02150
1218.35955,0.02262
1216.86976,0.02515
1215.37997,0.03237
1213.89018,0.04017
1212.40039,0.04277
1210.91061,0.05227
1209.42082,0.05271
1207.93103,0.05056
1206.44124,0.04844
1204.95145,0.05006
1203.46166,0.05114
1201.97188,0.05940
1200.48209,0.06246
1198.99230,0.06445
1197.50251,0.03510
1196.01272,0.04291
1194.52293,0.02997
1193.03314,0.01706
1191.54336,0.02549
1190.05357,0.01991
1188.56378,0.01381
1187.07399,0.01433
1185.58420,0.01102
1184.09441,0.01159
1182.60463,0.01383
1181.11484,0.01610
1179.62505,0.00354
1178.13526,0.01403
1176.64547,0.02291
1175.15568,0.01558
1173.66589,0.01597
1172.17611,0.01363
1170.68632,0.00857
1169.19653,0.00354
1167.70674,0.01308
1166.21695,0.01935
1164.72716,0.02371
1163.23738,0.02838
1161.74759,0.05122
1160.25780,0.04933
1158.76801,0.04595
1157.27822,0.04259
1155.78843,0.06360
1154.29865,0.08051
1152.80886,0.09249
1151.31907,0.07094
1149.82928,0.09919
1148.33949,0.13049
1146.84970,0.13376
1145.35991,0.13706
1143.87013,0.14423
1142.38034,0.14620
1140.89055,0.14269
1139.40076,0.14085
1137.91097,0.18195
1136.42118,0.19198
1134.93140,0.18788
1133.44161,0.18380
1131.95182,0.20326
1130.46203,0.19964
1128.97224,0.21530
1127.48245,0.22273
1125.99266,0.21450
1124.50288,0.22143
1123.01309,0.22645
1121.52330,0.23150
1120.03351,0.21869
1118.54372,0.20481
1117.05393,0.21543
1115.56415,0.22635
1114.07436,0.22271
1112.58457,0.22364
1111.09478,0.22458
1109.60499,0.21772
1108.11520,0.21143
1106.62542,0.20846
1105.13563,0.17966
1103.64584,0.18994
1102.15605,0.18429
1100.66626,0.18238
1099.17647,0.18049
1097.68668,0.19527
1096.19690,0.18449
1094.70711,0.18831
1093.21732,0.19573
1091.72753,0.16082
1090.23774,0.15632
1088.74795,0.15185
1087.25817,0.15386
1085.76838,0.13857
1084.27859,0.12770
1082.78880,0.13721
1081.29901,0.14344
1079.80922,0.13952
1078.31943,0.14965
1076.82965,0.15980
1075.33986,0.16228
1073.85007,0.18101
1072.36028,0.18408
1070.87049,0.19708
1069.38070,0.20680
1067.89092,0.21049
1066.40113,0.21421
1064.91134,0.25370
1063.42155,0.32429
1061.93176,0.41416
1060.44197,0.47545
1058.95219,0.59370
1057.46240,0.64514
1055.97261,0.69660
1054.48282,0.78356
1052.99303,0.80729
1051.50324,0.82307
1050.01345,0.83474
1048.52367,0.83819
1047.03388,0.86064
1045.54409,0.88311
1044.05430,0.83658
1042.56451,0.73121
1041.07472,0.66437
1039.58494,0.60856
1038.09515,0.55827
1036.60536,0.53866
1035.11557,0.51908
1033.62578,0.44549
1032.13599,0.39804
1030.64620,0.36464
1029.15642,0.30817
1027.66663,0.27509
1026.17684,0.24204
1024.68705,0.19911
1023.19726,0.16198
1021.70747,0.14468
1020.21769,0.12355
1018.72790,0.11976
1017.23811,0.11312
1015.74832,0.10650
1014.25853,0.09206
1012.76874,0.08122
1011.27896,0.07426
1009.78917,0.05879
1008.29938,0.06755
1006.80959,0.05130
1005.31980,0.03508
1003.83001,0.02714
1002.34022,0.00354
1000.85044,0.00726
999.36065,0.02750
997.87086,0.02961
996.38107,0.03175
994.89128,0.05372
993.40149,0.05645
991.91171,0.07682
990.42192,0.09087
988.93213,0.07140
987.44234,0.07107
985.95255,0.07076
984.46276,0.08547
982.97297,0.07984
981.48319,0.08579
979.99340,0.06041
978.50361,0.05348
977.01382,0.04657
975.52403,0.04134
974.03424,0.03173
972.54446,0.02380
971.05467,0.01698
969.56488,0.00442
968.07509,0.00426
966.58530,0.00412
965.09551,0.01474
963.60573,0.01025
962.11594,0.00688
960.62615,0.00354
959.13636,0.01143
957.64657,0.01935
956.15678,0.01135
954.66699,0.01959
953.17721,0.00860
951.68742,0.03202
950.19763,0.04501
948.70784,0.05802
947.21805,0.06528
945.72826,0.06487
944.23848,0.07740
942.74869,0.10701
941.25890,0.12674
939.76911,0.12930
938.27932,0.13189
936.78953,0.14591
935.29974,0.17839
933.80996,0.20154
932.32017,0.22966
930.83038,0.23127
929.34059,0.23289
927.85080,0.24239
926.36101,0.26318
924.87123,0.32607
923.38144,0.33535
921.89165,0.37547
920.40186,0.41560
918.91207,0.48272
917.42228,0.58258
915.93250,0.74489
914.44271,0.95069
912.95292,1.08981
911.46313,1.22896
909.97334,1.47525
908.48355,1.67234
906.99376,1.88705
905.50398,1.92165
904.01419,1.94375
902.52440,1.96588
901.03461,2.00000
899.54482,1.97116
898.05503,1.82463
896.56525,1.65420
895.07546,1.54347
893.58567,1.43277
892.09588,1.16890
890.60609,0.91551
889.11630,0.67204
887.62651,0.49460
886.13673,0.43888
884.64694,0.38319
883.15715,0.27650
881.66736,0.19541
880.17757,0.15642
878.68778,0.13410
877.19800,0.11180
875.70821,0.07151
874.21842,0.05517
872.72863,0.02290
871.23884,0.01321
869.74905,0.01179
868.25927,0.01040
866.76948,0.00957
865.27969,0.00685
863.78990,0.01818
862.30011,0.02650
860.81032,0.03788
859.32053,0.04927
857.83075,0.05437
856.34096,0.05866
854.85117,0.10423
853.36138,0.12068
851.87159,0.11844
850.38180,0.11623
848.89202,0.11706
847.40223,0.14542
845.91244,0.18124
844.42265,0.18297
842.93286,0.18472
841.44307,0.19145
839.95329,0.20508
838.46350,0.20168
836.97371,0.22250
835.48392,0.22383
833.99413,0.22517
832.50434,0.22682
831.01455,0.19328
829.52477,0.19250
828.03498,0.17661
826.54519,0.16061
825.05540,0.14464
823.56561,0.12139
822.07582,0.11220
820.58604,0.11926
819.09625,0.11685
817.60646,0.11447
816.11667,0.12380
814.62688,0.11417
813.13709,0.11145
811.64730,0.12965
810.15752,0.12793
808.66773,0.12624
807.17794,0.14121
805.68815,0.14658
804.19836,0.13162
802.70857,0.14391
801.21879,0.15622
799.72900,0.12263
798.23921,0.12014
796.74942,0.12373
795.25963,0.11950
793.76984,0.11529
792.28006,0.12884
790.79027,0.14490
789.30048,0.15905
787.81069,0.17405
786.32090,0.18536
784.83111,0.19670
783.34132,0.22717
781.85154,0.27059
780.36175,0.29066
778.87196,0.32065
777.38217,0.35067
775.89238,0.38071
774.40259,0.34587
772.91281,0.32398
771.42302,0.32218
769.93323,0.32042
768.44344,0.25954
766.95365,0.20281
765.46386,0.18544
763.97407,0.16506
762.48429,0.14856
760.99450,0.13208
759.50471,0.10600
758.01492,0.09370
756.52513,0.08279
755.03534,0.08304
753.54556,0.08332
752.05577,0.06918
750.56598,0.06882
749.07619,0.04153
747.58640,0.03667
746.09661,0.03184
744.60683,0.04010
743.11704,0.03161
741.62725,0.02203
740.13746,0.01922
738.64767,0.01643
737.15788,0.02013
735.66809,0.00735
734.17831,0.00670
732.68852,0.00511
731.19873,0.00354
729.70894,0.01719
728.21915,0.01795
726.72936,0.02340
725.23958,0.01183
723.74979,0.01169
722.26000,0.01158
720.77021,0.01960
719.28042,0.01554
717.79063,0.00354
716.30084,0.00670
714.81106,0.00989
713.32127,0.02094
711.83148,0.02679
710.34169,0.02772
708.85190,0.02247
707.36211,0.01726
705.87233,0.04575
704.38254,0.03412
702.89275,0.05468
701.40296,0.05423
699.91317,0.05381
698.42338,0.07472
696.93360,0.08410
695.44381,0.10616
693.95402,0.11862
692.46423,0.13110
690.97444,0.14278
689.48465,0.14211
687.99486,0.17859
686.50508,0.18951
685.01529,0.20046
683.52550,0.22160
682.03571,0.25735
680.54592,0.26837
679.05613,0.27061
677.56635,0.27288
676.07656,0.23611
674.58677,0.24722
673.09698,0.22618
671.60719,0.20901
670.11740,0.19187
668.62761,0.17145
667.13783,0.15215
665.64804,0.13686
664.15825,0.12160
662.66846,0.10898
661.17867,0.10462
659.68888,0.07692
658.19910,0.06106
656.70931,0.04523
655.21952,0.05692
653.72973,0.03839
652.23994,0.01960
650.75015,0.01623
649.26037,0.01290
647.77058,0.03571
646.28079,0.03984
644.79100,0.05390
643.30121,0.04859
641.81142,0.04331
640.32163,0.04698
638.83185,0.04243
637.34206,0.03351
635.85227,0.02158
634.36248,0.00967
632.87269,0.00714
631.38290,0.00354
629.89312,0.02598
628.40333,0.01778
626.91354,0.00960
625.42375,0.01479
623.93396,0.01174
622.44417,0.01780
620.95438,0.02388
619.46460,0.01266
617.97481,0.04739
616.48502,0.06344
614.99523,0.07883
613.50544,0.09424
612.01565,0.10954
610.52587,0.14301
609.03608,0.16826
607.54629,0.19449
606.05650,0.22075
604.56671,0.26999
603.07692,0.31348
601.58714,0.32509
600.09735,0.33673
598.60756,0.39239
597.11777,0.38867
595.62798,0.40450
594.13819,0.39272
592.64840,0.38096
591.15862,0.34378
589.66883,0.30195
588.17904,0.24887
586.68925,0.21437
585.19946,0.17990
583.70967,0.14532
582.21989,0.11598
580.73010,0.10386
579.24031,0.09176
577.75052,0.04627
576.26073,0.05140
574.77094,0.03841
573.28115,0.03919
571.79137,0.04000
570.30158,0.04193
568.81179,0.05021
567.32200,0.05122
565.83221,0.05226
564.34242,0.07243
562.85264,0.08328
561.36285,0.09580
559.87306,0.10697
558.38327,0.11817
556.89348,0.11893
555.40369,0.12357
553.91391,0.12975
552.42412,0.13595
550.93433,0.15991
549.44454,0.16437
547.95475,0.16610
546.46496,0.16910
544.97517,0.17211
543.48539,0.20554
541.99560,0.22442
540.50581,0.23824
539.01602,0.25207
537.52623,0.26717
536.03644,0.30814
534.54666,0.34887
533.05687,0.36830
531.56708,0.38775
530.07729,0.43432
528.58750,0.47129
527.09771,0.50057
525.60792,0.52989
524.11814,0.60295
522.62835,0.65211
521.13856,0.68865
519.64877,0.70458
518.15898,0.72053
516.66919,0.76786
515.17941,0.78001
513.68962,0.77321
512.19983,0.76643
510.71004,0.70027
509.22025,0.69023
507.73046,0.63787
506.24068,0.58993
504.75089,0.54202
503.26110,0.44105
501.77131,0.34725
500.28152,0.31123
498.79173,0.27523
497.30194,0.20021
495.81216,0.16261
494.32237,0.14484
492.83258,0.12709
491.34279,0.09534
489.85300,0.07296
488.36321,0.05638
486.87343,0.05784
485.38364,0.05932
483.89385,0.08241
482.40406,0.07968
480.91427,0.08577
479.42448,0.09188
477.93469,0.10875
476.44491,0.14159
474.95512,0.14351
473.46533,0.14545
471.97554,0.15636
470.48575,0.14556
468.99596,0.15789
467.50618,0.13985
466.01639,0.12184
464.52660,0.09766
463.03681,0.07488
461.54702,0.06010
460.05723,0.04534
458.56745,0.03886
457.07766,0.02635
455.58787,0.02115
454.09808,0.01598
452.60829,0.00354
451.11850,0.01395
449.62871,0.00954
448.13893,0.00516
446.64914,0.03627
445.15935,0.00746
443.66956,0.01249
442.17977,0.01384
440.68998,0.01521
439.20020,0.02389
437.71041,0.01692
436.22062,0.01987
434.73083,0.02284
433.24104,0.00522
431.75125,0.01814
430.26146,0.02875
428.77168,0.03938
427.28189,0.03340
425.79210,0.04119
424.30231,0.03746
422.81252,0.03375
421.32273,0.03281
419.83295,0.02199
418.34316,0.02853
416.85337,0.03508
415.36358,0.02214
413.87379,0.04415
412.38400,0.04225
410.89422,0.04038
409.40443,0.03440
407.91464,0.03890
406.42485,0.01289
404.93506,0.03023
403.44527,0.04759
401.95548,0.03898
400.46570,0.02984
398.97591,0.02142
397.48612,0.01302
395.99633,0.02623
394.50654,0.01554
393.01675,0.01464
391.52697,0.00918
390.03718,0.02396
388.54739,0.03464
387.05760,0.01908
385.56781,0.00354
384.07802,0.02347
382.58824,0.00300
381.09845,0.00689
379.60866,0.01081
378.11887,0.00196
376.62908,0.01156
375.13929,0.00825
373.64950,0.00498
372.15972,0.02152
370.66993,0.01499
369.18014,0.00925
367.69035,0.00354
366.20056,0.03634
364.71077,0.01443
363.22099,0.01510
361.73120,0.01579
360.24141,0.02889
358.75162,0.01395
357.26183,0.02049
355.77204,0.02705
354.28225,0.02429
352.79247,0.00340
351.30268,0.01828
349.81289,0.03319
348.32310,0.05637
346.83331,0.03200
345.34352,0.02648
343.85374,0.02100
342.36395,0.00549
340.87416,0.01108
339.38437,0.01340
337.89458,0.01574
336.40479,0.01865
334.91501,0.01883
333.42522,0.00955
331.93543,0.00030
330.44564,0.00000
328.95585,0.01155
327.46606,0.00883
325.97627,0.00613
324.48649,0.01116
322.99670,0.00905
321.50691,0.02458
320.01712,0.04012
318.52733,0.05212
317.03754,0.04763
315.54776,0.05459
314.05797,0.06156
312.56818,0.03955
311.07839,0.05606
309.58860,0.03423
308.09881,0.01242
306.60902,0.03313
305.11924,0.02443
303.62945,0.01397
302.13966,0.00354
300.64987,0.01205
299.16008,0.00354
