1778.52000,0.01501
1777.03021,0.01242
1775.54042,0.00431
1774.05063,0.01479
1772.56085,0.02336
1771.07106,0.01050
1769.58127,0.01623
1768.09148,0.00414
1766.60169,0.00799
1765.11190,0.01042
1763.62212,0.01118
1762.13233,0.01173
1760.64254,0.00338
1759.15275,0.01893
1757.66296,0.01232
1756.17317,0.00621
1754.68339,0.00279
1753.19360,0.00252
1751.70381,0.00999
1750.21402,0.00158
1748.72423,0.00596
1747.23444,0.00797
1745.74465,0.00541
1744.25487,0.01277
1742.76508,0.00761
1741.27529,0.01429
1739.78550,0.00991
1738.29571,0.00531
1736.80592,0.00338
1735.31614,0.01419
1733.82635,0.00453
1732.33656,0.00045
1730.84677,0.00000
1729.35698,0.01356
1727.86719,0.01919
1726.37740,0.00990
1724.88762,0.01847
1723.39783,0.02321
1721.90804,0.01230
1720.41825,0.00914
1718.92846,0.00262
1717.43867,0.00338
1715.94889,0.00748
1714.45910,0.01547
1712.96931,0.01359
1711.47952,0.01512
1709.98973,0.01884
1708.49994,0.01752
1707.01016,0.01623
1705.52037,0.01496
1704.03058,0.00986
1702.54079,0.01129
1701.05100,0.00865
1699.56121,0.02074
1698.07142,0.02056
1696.58164,0.02353
1695.09185,0.03449
1693.60206,0.03270
1692.11227,0.04491
1690.62248,0.03473
1689.13269,0.03976
1687.64291,0.04072
1686.15312,0.05134
1684.66333,0.03812
1683.17354,0.05314
1681.68375,0.04142
1680.19396,0.05624
1678.70417,0.04866
1677.21439,0.06161
1675.72460,0.07144
1674.23481,0.07431
1672.74502,0.07527
1671.25523,0.08060
1669.76544,0.08475
1668.27566,0.07927
1666.78587,0.08443
1665.29608,0.09083
1663.80629,0.09724
1662.31650,0.12104
1660.82671,0.11834
1659.33693,0.11495
1657.84714,0.11375
1656.35735,0.10655
1654.86756,0.09382
1653.37777,0.10403
1651.88798,0.09449
1650.39819,0.09679
1648.90841,0.09284
1647.41862,0.08579
1645.92883,0.08419
1644.43904,0.08261
1642.94925,0.08624
1641.45946,0.08627
1639.96968,0.08416
1638.47989,0.10112
1636.99010,0.09449
1635.50031,0.09872
1634.01052,0.08490
1632.52073,0.08870
1631.03094,0.08963
1629.54116,0.08336
1628.05137,0.10724
1626.56158,0.08824
1625.07179,0.11073
1623.58200,0.10962
1622.09221,0.10515
1620.60243,0.10674
1619.11264,0.09220
1617.62285,0.09818
1616.13306,0.09213
1614.64327,0.09141
1613.15348,0.09336
1611.66370,0.10185
1610.17391,0.10891
1608.68412,0.10757
1607.19433,0.11155
1605.70454,0.11194
1604.21475,0.10126
1602.72496,0.09061
1601.23518,0.10072
1599.74539,0.07855
1598.25560,0.09593
1596.76581,0.08225
1595.27602,0.09053
1593.78623,0.08316
1592.29645,0.07003
1590.80666,0.07886
1589.31687,0.08435
1587.82708,0.08937
1586.33729,0.08141
1584.84750,0.07539
1583.35771,0.06916
1581.86793,0.06537
1580.37814,0.07775
1578.88835,0.06967
1577.39856,0.07149
1575.90877,0.06370
1574.41898,0.05906
1572.92920,0.05180
1571.43941,0.04914
1569.94962,0.04687
1568.45983,0.04463
1566.97004,0.04373
1565.48025,0.03659
1563.99047,0.03671
1562.50068,0.03252
1561.01089,0.03558
1559.52110,0.03047
1558.03131,0.03382
1556.54152,0.02731
1555.05173,0.02059
1553.56195,0.02449
1552.07216,0.02168
1550.58237,0.01189
1549.09258,0.01636
1547.60279,0.00518
1546.11300,0.00149
1544.62322,0.01155
1543.13343,0.01319
1541.64364,0.00353
1540.15385,0.00885
1538.66406,0.01421
1537.17427,0.02332
1535.68448,0.01077
1534.19470,0.01463
1532.70491,0.00960
1531.21512,0.00338
1529.72533,0.01210
1528.23554,0.01169
1526.74575,0.02335
1525.25597,0.02082
1523.76618,0.01493
1522.27639,0.00883
1520.78660,0.02324
1519.29681,0.04057
1517.80702,0.02321
1516.31724,0.02324
1514.82745,0.02329
1513.33766,0.02951
1511.84787,0.03575
1510.35808,0.03780
1508.86829,0.02710
1507.37850,0.02462
1505.88872,0.04507
1504.39893,0.06892
1502.90914,0.05398
1501.41935,0.05063
1499.92956,0.07214
1498.43977,0.05945
1496.94999,0.07185
1495.46020,0.06161
1493.97041,0.07189
1492.48062,0.09497
1490.99083,0.09493
1489.50104,0.10890
1488.01125,0.11795
1486.52147,0.12703
1485.03168,0.14469
1483.54189,0.16286
1482.05210,0.17092
1480.56231,0.20168
1479.07252,0.24234
1477.58274,0.26109
1476.09295,0.25985
1474.60316,0.27600
1473.11337,0.27240
1471.62358,0.29486
1470.13379,0.28577
1468.64401,0.29237
1467.15422,0.31177
1465.66443,0.33168
1464.17464,0.35162
1462.68485,0.39400
1461.19506,0.42098
1459.70527,0.46533
1458.21549,0.53672
1456.72570,0.57944
1455.23591,0.61905
1453.74612,0.65652
1452.25633,0.70389
1450.76654,0.71585
1449.27676,0.69963
1447.78697,0.72900
1446.29718,0.70247
1444.80739,0.68885
1443.31760,0.67526
1441.82781,0.63144
1440.33802,0.57921
1438.84824,0.52194
1437.35845,0.47988
1435.86866,0.48968
1434.37887,0.51541
1432.88908,0.53828
1431.39929,0.58504
1429.90951,0.64339
1428.41972,0.71792
1426.92993,0.80863
1425.44014,0.82511
1423.95035,0.83209
1422.46056,0.83910
1420.97078,0.86168
1419.48099,0.91708
1417.99120,0.96743
1416.50141,0.95971
1415.01162,0.94840
1413.52183,0.88890
1412.03204,0.82002
1410.54226,0.74128
1409.05247,0.69126
1407.56268,0.66247
1406.07289,0.58887
1404.58310,0.55531
1403.09331,0.52178
1401.60353,0.45838
1400.11374,0.41983
1398.62395,0.37022
1397.13416,0.34209
1395.64437,0.27228
1394.15458,0.23166
1392.66479,0.19830
1391.17501,0.16762
1389.68522,0.14371
1388.19543,0.10367
1386.70564,0.09018
1385.21585,0.07671
1383.72606,0.05604
1382.23628,0.05540
1380.74649,0.04803
1379.25670,0.04503
1377.76691,0.04422
1376.27712,0.01981
1374.78733,0.00338
1373.29755,0.02294
1371.80776,0.02058
1370.31797,0.02138
1368.82818,0.01798
1367.33839,0.01461
1365.84860,0.02971
1364.35881,0.02314
1362.86903,0.05540
1361.37924,0.05972
1359.88945,0.07154
1358.39966,0.11497
1356.90987,0.15649
1355.42008,0.19563
1353.93030,0.24637
1352.44051,0.27687
1350.95072,0.30741
1349.46093,0.36930
1347.97114,0.46715
1346.48135,0.53585
1344.99156,0.58432
1343.50178,0.62558
1342.01199,0.68567
1340.52220,0.72892
1339.03241,0.79412
1337.54262,0.87116
1336.05283,0.89724
1334.56305,0.92335
1333.07326,0.93610
1331.58347,0.88884
1330.09368,0.89754
1328.60389,0.90362
1327.11410,0.88464
1325.62432,0.85991
1324.13453,0.83833
1322.64474,0.80569
1321.15495,0.73474
1319.66516,0.72638
1318.17537,0.71804
1316.68558,0.61655
1315.19580,0.57029
1313.70601,0.53081
1312.21622,0.51184
1310.72643,0.48711
1309.23664,0.45542
1307.74685,0.40253
1306.25707,0.37330
1304.76728,0.35349
1303.27749,0.33371
1301.78770,0.28960
1300.29791,0.26070
1298.80812,0.22533
1297.31834,0.19118
1295.82855,0.15247
1294.33876,0.12729
1292.84897,0.11612
1291.35918,0.07532
1289.86939,0.07951
1288.37960,0.08372
1286.88982,0.09747
1285.40003,0.08715
1283.91024,0.08071
1282.42045,0.06730
1280.93066,0.06765
1279.44087,0.06177
1277.95109,0.05976
1276.46130,0.05465
1274.97151,0.05076
1273.48172,0.04690
1271.99193,0.03511
1270.50214,0.02142
1269.01235,0.01450
1267.52257,0.01773
1266.03278,0.01785
1264.54299,0.04139
1263.05320,0.02299
1261.56341,0.02801
1260.07362,0.03305
1258.58384,0.02317
1257.09405,0.02610
1255.60426,0.03772
1254.11447,0.01707
1252.62468,0.01621
1251.13489,0.02526
1249.64511,0.02854
1248.15532,0.03041
1246.66553,0.02663
1245.17574,0.02288
1243.68595,0.03543
1242.19616,0.00509
1240.70637,0.02154
1239.21659,0.02500
1237.72680,0.02415
1236.23701,0.02766
1234.74722,0.02420
1233.25743,0.01378
1231.76764,0.00338
1230.27786,0.00762
1228.78807,0.01816
1227.29828,0.02221
1225.80849,0.02725
1224.31870,0.00989
1222.82891,0.02704
1221.33912,0.02636
1219.84934,0.02439
1218.35955,0.02244
1216.86976,0.03342
1215.37997,0.04827
1213.89018,0.05881
1212.40039,0.06576
1210.91061,0.07033
1209.42082,0.07660
1207.93103,0.07700
1206.44124,0.07742
1204.95145,0.08039
1203.46166,0.07230
1201.97188,0.05339
1200.48209,0.06029
1198.99230,0.05059
1197.50251,0.02982
1196.01272,0.03632
1194.52293,0.03248
1193.03314,0.02866
1191.54336,0.01571
1190.05357,0.02424
1188.56378,0.03496
1187.07399,0.02039
1185.58420,0.02610
1184.09441,0.00338
1182.60463,0.00557
1181.11484,0.00778
1179.62505,0.02979
1178.13526,0.01735
1176.64547,0.01457
1175.15568,0.00338
1173.66589,0.02166
1172.17611,0.01586
1170.68632,0.01514
1169.19653,0.01445
1167.70674,0.01402
1166.21695,0.02085
1164.72716,0.01710
1163.23738,0.02519
1161.74759,0.03016
1160.25780,0.03565
1158.76801,0.03814
1157.27822,0.04066
1155.78843,0.06333
1154.29865,0.06337
1152.80886,0.07211
1151.31907,0.07340
1149.82928,0.09401
1148.33949,0.11150
1146.84970,0.12106
1145.35991,0.13065
1143.87013,0.12821
1142.38034,0.14532
1140.89055,0.14944
1139.40076,0.15045
1137.91097,0.18547
1136.42118,0.19521
1134.93140,0.19798
1133.44161,0.20078
1131.95182,0.20793
1130.46203,0.21223
1128.97224,0.20883
1127.48245,0.22377
1125.99266,0.23055
1124.50288,0.24965
1123.01309,0.24008
1121.52330,0.23054
1120.03351,0.22632
1118.54372,0.22575
1117.05393,0.20061
1115.56415,0.19767
1114.07436,0.23141
1112.58457,0.22792
1111.09478,0.22446
1109.60499,0.21173
1108.11520,0.22893
1106.62542,0.20566
1105.13563,0.20964
1103.64584,0.20956
1102.15605,0.21408
1100.66626,0.19958
1099.17647,0.18510
1097.68668,0.17596
1096.19690,0.19359
1094.70711,0.19318
1093.21732,0.16578
1091.72753,0.20061
1090.23774,0.20509
1088.74795,0.20959
1087.25817,0.19483
1085.76838,0.17310
1084.27859,0.17237
1082.78880,0.18107
1081.29901,0.17461
1079.80922,0.17106
1078.31943,0.17224
1076.82965,0.17345
1075.33986,0.18613
1073.85007,0.18268
1072.36028,0.18938
1070.87049,0.17586
1069.38070,0.20961
1067.89092,0.22531
1066.40113,0.24103
1064.91134,0.32476
1063.42155,0.43721
1061.93176,0.47711
1060.44197,0.58213
1058.95219,0.66090
1057.46240,0.72185
1055.97261,0.78282
1054.48282,0.84889
1052.99303,0.89882
1051.50324,0.92323
1050.01345,0.92693
1048.52367,0.93740
1047.03388,0.92524
1045.54409,0.91310
1044.05430,0.85736
1042.56451,0.78789
1041.07472,0.74521
1039.58494,0.69195
1038.09515,0.63895
1036.60536,0.58887
1035.11557,0.53882
1033.62578,0.46781
1032.13599,0.41684
1030.64620,0.37193
1029.15642,0.30317
1027.66663,0.27891
1026.17684,0.25468
1024.68705,0.20094
1023.19726,0.18604
1021.70747,0.17068
1020.21769,0.15318
1018.72790,0.15065
1017.23811,0.14597
1015.74832,0.14132
1014.25853,0.11283
1012.76874,0.13161
1011.27896,0.14150
1009.78917,0.14080
1008.29938,0.12229
1006.80959,0.10947
1005.31980,0.09668
1003.83001,0.03509
1002.34022,0.02873
1000.85044,0.02144
999.36065,0.05780
997.87086,0.05742
996.38107,0.05707
994.89128,0.06482
993.40149,0.05958
991.91171,0.09172
990.42192,0.08436
988.93213,0.08907
987.44234,0.08947
985.95255,0.08990
984.46276,0.09710
982.97297,0.08142
981.48319,0.07541
979.99340,0.07545
978.50361,0.05816
977.01382,0.04089
975.52403,0.03401
974.03424,0.02306
972.54446,0.02034
971.05467,0.00919
969.56488,0.00338
968.07509,0.00418
966.58530,0.00500
965.09551,0.03490
963.60573,0.03710
962.11594,0.01859
960.62615,0.03578
959.13636,0.02901
957.64657,0.02227
956.15678,0.02966
954.66699,0.05346
953.17721,0.04715
951.68742,0.08016
950.19763,0.08451
948.70784,0.08889
947.21805,0.08943
945.72826,0.06468
944.23848,0.07829
942.74869,0.10495
941.25890,0.12801
939.76911,0.14290
938.27932,0.15781
936.78953,0.17974
935.29974,0.20193
933.80996,0.24151
932.32017,0.25797
930.83038,0.25083
929.34059,0.24371
927.85080,0.24675
926.36101,0.26210
924.87123,0.26422
923.38144,0.30349
921.89165,0.34676
920.40186,0.39006
918.91207,0.48268
917.42228,0.59365
915.93250,0.70826
914.44271,0.91305
912.95292,1.03313
911.46313,1.15324
909.97334,1.38873
908.48355,1.61002
906.99376,1.75081
905.50398,1.81497
904.01419,1.86107
902.52440,1.90719
901.03461,1.98685
899.54482,2.00000
898.05503,1.89987
896.56525,1.68910
895.07546,1.56069
893.58567,1.43230
892.09588,1.17171
890.60609,0.93959
889.11630,0.73184
887.62651,0.56365
886.13673,0.48915
884.64694,0.41467
883.15715,0.29912
881.66736,0.21709
880.17757,0.16475
878.68778,0.14497
877.19800,0.12522
875.70821,0.08886
874.21842,0.03951
872.72863,0.03598
871.23884,0.02381
869.74905,0.01358
868.25927,0.00338
866.76948,0.02887
865.27969,0.06547
863.78990,0.08041
862.30011,0.07993
860.81032,0.09298
859.32053,0.10606
857.83075,0.08903
856.34096,0.09974
854.85117,0.10735
853.36138,0.12872
851.87159,0.12384
850.38180,0.11899
848.89202,0.13899
847.40223,0.16890
845.91244,0.20413
844.42265,0.21505
842.93286,0.22599
841.44307,0.21718
839.95329,0.25324
838.46350,0.25678
836.97371,0.24009
835.48392,0.25345
833.99413,0.26682
832.50434,0.26371
831.01455,0.26737
829.52477,0.25636
828.03498,0.19377
826.54519,0.17352
825.05540,0.15330
823.56561,0.13563
822.07582,0.13558
820.58604,0.11145
819.09625,0.11399
817.60646,0.11655
816.11667,0.12022
814.62688,0.10704
813.13709,0.10545
811.64730,0.08798
810.15752,0.09464
808.66773,0.10133
807.17794,0.13697
805.68815,0.12249
804.19836,0.13600
802.70857,0.12724
801.21879,0.11850
799.72900,0.12654
798.23921,0.13267
796.74942,0.13594
795.25963,0.13357
793.76984,0.13122
792.28006,0.12902
790.79027,0.15432
789.30048,0.15000
787.81069,0.17174
786.32090,0.17904
784.83111,0.18636
783.34132,0.21059
781.85154,0.28136
780.36175,0.33167
778.87196,0.34596
777.38217,0.36028
775.89238,0.38487
774.40259,0.39092
772.91281,0.39193
771.42302,0.37103
769.93323,0.35016
768.44344,0.30929
766.95365,0.25857
765.46386,0.23199
763.97407,0.20494
762.48429,0.18323
760.99450,0.16153
759.50471,0.15650
758.01492,0.13655
756.52513,0.09010
755.03534,0.09201
753.54556,0.09395
752.05577,0.10013
750.56598,0.05474
749.07619,0.04506
747.58640,0.04432
746.09661,0.04361
744.60683,0.03762
743.11704,0.02732
741.62725,0.02234
740.13746,0.01823
738.64767,0.01415
737.15788,0.02033
735.66809,0.02799
734.17831,0.02145
732.68852,0.01240
731.19873,0.00338
729.70894,0.01718
728.21915,0.02859
726.72936,0.00844
725.23958,0.01822
723.74979,0.01138
722.26000,0.00457
720.77021,0.00710
719.28042,0.00338
717.79063,0.02686
716.30084,0.02288
714.81106,0.01893
713.32127,0.02368
711.83148,0.03593
710.34169,0.05013
708.85190,0.04061
707.36211,0.03112
705.87233,0.03648
704.38254,0.04089
702.89275,0.04558
701.40296,0.04643
699.91317,0.04730
698.42338,0.05664
696.93360,0.08505
695.44381,0.10287
693.95402,0.10626
692.46423,0.10967
690.97444,0.14275
689.48465,0.15971
687.99486,0.16705
686.50508,0.18105
685.01529,0.19507
683.52550,0.21189
682.03571,0.22656
680.54592,0.28007
679.05613,0.27900
677.56635,0.27796
676.07656,0.25777
674.58677,0.25280
673.09698,0.22350
671.60719,0.20725
670.11740,0.19102
668.62761,0.19676
667.13783,0.15285
665.64804,0.13803
664.15825,0.12322
662.66846,0.11001
661.17867,0.09586
659.68888,0.08173
658.19910,0.06450
656.70931,0.04729
655.21952,0.03757
653.72973,0.04042
652.23994,0.02594
650.75015,0.03595
649.26037,0.04598
647.77058,0.05037
646.28079,0.03430
644.79100,0.03826
643.30121,0.04405
641.81142,0.04987
640.32163,0.05728
638.83185,0.04109
637.34206,0.02348
635.85227,0.01722
634.36248,0.01099
632.87269,0.01082
631.38290,0.01935
629.89312,0.03658
628.40333,0.01997
626.91354,0.00338
625.42375,0.01282
623.93396,0.01674
622.44417,0.02515
620.95438,0.03358
619.46460,0.04987
617.97481,0.03967
616.48502,0.05504
614.99523,0.07840
613.50544,0.10178
612.01565,0.11699
610.52587,0.13102
609.03608,0.18075
607.54629,0.19579
606.05650,0.21086
604.56671,0.27296
603.07692,0.31266
601.58714,0.32407
600.09735,0.33550
598.60756,0.39336
597.11777,0.40231
595.62798,0.41610
594.13819,0.40075
592.64840,0.38542
591.15862,0.36867
589.66883,0.30976
588.17904,0.23448
586.68925,0.20948
585.19946,0.18452
583.70967,0.14427
582.21989,0.13080
580.73010,0.10133
579.24031,0.07188
577.75052,0.06765
576.26073,0.03620
574.77094,0.05275
573.28115,0.04847
571.79137,0.04422
570.30158,0.02974
568.81179,0.08472
567.32200,0.08006
565.83221,0.07543
564.34242,0.09649
562.85264,0.10866
561.36285,0.12760
559.87306,0.12536
558.38327,0.12313
556.89348,0.13757
555.40369,0.15011
553.91391,0.15254
552.42412,0.15500
550.93433,0.19147
549.44454,0.17204
547.95475,0.17071
546.46496,0.17544
544.97517,0.18019
543.48539,0.20522
541.99560,0.25028
540.50581,0.26330
539.01602,0.27635
537.52623,0.31979
536.03644,0.36736
534.54666,0.37277
533.05687,0.39447
531.56708,0.41620
530.07729,0.43615
528.58750,0.49204
527.09771,0.51782
525.60792,0.54362
524.11814,0.62876
522.62835,0.67004
521.13856,0.74221
519.64877,0.75594
518.15898,0.76969
516.66919,0.81493
515.17941,0.83537
513.68962,0.84691
512.19983,0.85847
510.71004,0.74036
509.22025,0.74016
507.73046,0.63174
506.24068,0.58518
504.75089,0.53865
503.26110,0.46141
501.77131,0.38202
500.28152,0.32591
498.79173,0.26984
497.30194,0.20716
495.81216,0.17246
494.32237,0.15516
492.83258,0.13787
491.34279,0.10301
489.85300,0.07686
488.36321,0.06712
486.87343,0.07669
485.38364,0.08629
483.89385,0.08097
482.40406,0.06699
480.91427,0.07100
479.42448,0.07503
477.93469,0.10573
476.44491,0.14850
474.95512,0.15683
473.46533,0.16518
471.97554,0.18199
470.48575,0.19690
468.99596,0.17904
467.50618,0.16905
466.01639,0.15908
464.52660,0.11213
463.03681,0.05460
461.54702,0.05495
460.05723,0.05533
458.56745,0.05211
457.07766,0.04386
455.58787,0.03443
454.09808,0.02502
452.60829,0.02142
451.11850,0.00338
449.62871,0.00363
448.13893,0.00390
446.64914,0.03083
445.15935,0.00162
443.66956,0.01245
442.17977,0.01668
440.68998,0.02093
439.20020,0.01664
437.71041,0.04445
436.22062,0.03973
434.73083,0.03504
433.24104,0.03544
431.75125,0.04117
430.26146,0.03607
428.77168,0.03099
427.28189,0.03969
425.79210,0.03900
424.30231,0.04316
422.81252,0.04735
421.32273,0.04264
419.83295,0.04447
418.34316,0.03318
416.85337,0.02191
415.36358,0.03394
413.87379,0.00934
412.38400,0.00635
410.89422,0.00338
409.40443,0.02117
407.91464,0.02957
406.42485,0.03342
404.93506,0.03694
403.44527,0.04047
401.95548,0.03186
400.46570,0.00857
398.97591,0.01387
397.48612,0.01920
395.99633,0.02394
394.50654,0.02172
393.01675,0.02797
391.52697,0.03423
390.03718,0.03040
388.54739,0.01358
387.05760,0.00847
385.56781,0.00338
384.07802,0.00257
382.58824,0.00851
381.09845,0.01230
379.60866,0.01612
378.11887,0.01128
376.62908,0.01515
375.13929,0.01446
373.64950,0.01380
372.15972,0.00617
370.66993,0.00338
369.18014,0.00319
367.69035,0.00302
366.20056,0.03253
364.71077,0.03458
363.22099,0.03847
361.73120,0.04238
360.24141,0.05029
358.75162,0.04834
357.26183,0.04714
355.77204,0.04597
354.28225,0.00143
352.79247,0.04008
351.30268,0.05453
349.81289,0.06900
348.32310,0.06964
346.83331,0.03703
345.34352,0.02518
343.85374,0.01335
342.36395,0.03651
340.87416,0.05053
339.38437,0.04312
337.89458,0.03573
336.40479,0.06309
334.91501,0.03381
333.42522,0.03385
331.93543,0.03392
330.44564,0.02689
328.95585,0.05919
327.46606,0.03607
325.97627,0.01297
324.48649,0.02082
322.99670,0.07039
321.50691,0.08299
320.01712,0.09562
318.52733,0.10284
317.03754,0.09466
315.54776,0.07337
314.05797,0.05210
312.56818,0.05146
311.07839,0.05134
309.58860,0.05533
308.09881,0.05936
306.60902,0.08703
305.11924,0.08797
303.62945,0.05687
302.13966,0.02579
300.64987,0.00338
299.16008,0.00338
