1778.52000,0.01492
1777.03021,0.01630
1775.54042,0.01141
1774.05063,0.01331
1772.56085,0.00963
1771.07106,0.01554
1769.58127,0.00957
1768.09148,0.01227
1766.60169,0.00309
1765.11190,0.01142
1763.62212,0.01465
1762.13233,0.01160
1760.64254,0.01255
1759.15275,0.01422
1757.66296,0.01428
1756.17317,0.01156
1754.68339,0.00747
1753.19360,0.01226
1751.70381,0.00962
1750.21402,0.00770
1748.72423,0.00557
1747.23444,0.00183
1745.74465,0.00791
1744.25487,0.01005
1742.76508,0.01361
1741.27529,0.00810
1739.78550,0.00309
1738.29571,0.00425
1736.80592,0.01196
1735.31614,0.00967
1733.82635,0.00554
1732.33656,0.00750
1730.84677,0.00201
1729.35698,0.00728
1727.86719,0.00954
1726.37740,0.01253
1724.88762,0.00481
1723.39783,0.01274
1721.90804,0.00950
1720.41825,0.00441
1718.92846,0.00309
1717.43867,0.00402
1715.94889,0.00621
1714.45910,0.01286
1712.96931,0.00788
1711.47952,0.00921
1709.98973,0.00824
1708.49994,0.00589
1707.01016,0.00462
1705.52037,0.00336
1704.03058,0.01485
1702.54079,0.00000
1701.05100,0.00733
1699.56121,0.01026
1698.07142,0.01018
1696.58164,0.00732
1695.09185,0.00309
1693.60206,0.02018
1692.11227,0.01211
1690.62248,0.00967
1689.13269,0.02054
1687.64291,0.02234
1686.15312,0.02346
1684.66333,0.01785
1683.17354,0.01879
1681.68375,0.01975
1680.19396,0.02400
1678.70417,0.02594
1677.21439,0.02441
1675.72460,0.02664
1674.23481,0.03308
1672.74502,0.03465
1671.25523,0.03368
1669.76544,0.04323
1668.27566,0.03998
1666.78587,0.05564
1665.29608,0.05150
1663.80629,0.05555
1662.31650,0.06662
1660.82671,0.06745
1659.33693,0.06947
1657.84714,0.06498
1656.35735,0.06845
1654.86756,0.06821
1653.37777,0.07056
1651.88798,0.05987
1650.39819,0.07789
1648.90841,0.07355
1647.41862,0.07249
1645.92883,0.06587
1644.43904,0.05926
1642.94925,0.08253
1641.45946,0.05942
1639.96968,0.06921
1638.47989,0.07297
1636.99010,0.08094
1635.50031,0.07658
1634.01052,0.07504
1632.52073,0.07609
1631.03094,0.07973
1629.54116,0.08573
1628.05137,0.08545
1626.56158,0.09616
1625.07179,0.09733
1623.58200,0.09339
1622.09221,0.10091
1620.60243,0.08582
1619.11264,0.09922
1617.62285,0.09374
1616.13306,0.08456
1614.64327,0.07354
1613.15348,0.07933
1611.66370,0.08491
1610.17391,0.08212
1608.68412,0.08285
1607.19433,0.07545
1605.70454,0.09092
1604.21475,0.08671
1602.72496,0.08253
1601.23518,0.07988
1599.74539,0.09125
1598.25560,0.07629
1596.76581,0.08888
1595.27602,0.09752
1593.78623,0.08520
1592.29645,0.07990
1590.80666,0.08022
1589.31687,0.06494
1587.82708,0.07533
1586.33729,0.08179
1584.84750,0.07870
1583.35771,0.06608
1581.86793,0.07191
1580.37814,0.09409
1578.88835,0.07477
1577.39856,0.06901
1575.90877,0.06934
1574.41898,0.06502
1572.92920,0.05676
1571.43941,0.04853
1569.94962,0.05292
1568.45983,0.05733
1566.97004,0.04403
1565.48025,0.03357
1563.99047,0.03385
1562.50068,0.03742
1561.01089,0.02516
1559.52110,0.02061
1558.03131,0.02892
1556.54152,0.02676
1555.05173,0.02672
1553.56195,0.02274
1552.07216,0.02508
1550.58237,0.01835
1549.09258,0.00954
1547.60279,0.02571
1546.11300,0.00436
1544.62322,0.00309
1543.13343,0.01028
1541.64364,0.01516
1540.15385,0.01050
1538.66406,0.00587
1537.17427,0.00966
1535.68448,0.00647
1534.19470,0.01987
1532.70491,0.01347
1531.21512,0.02785
1529.72533,0.01076
1528.23554,0.01143
1526.74575,0.02821
1525.25597,0.02286
1523.76618,0.03456
1522.27639,0.03719
1520.78660,0.01535
1519.29681,0.04415
1517.80702,0.03075
1516.31724,0.04257
1514.82745,0.03599
1513.33766,0.04086
1511.84787,0.04575
1510.35808,0.03621
1508.86829,0.04441
1507.37850,0.03982
1505.88872,0.05367
1504.39893,0.04515
1502.90914,0.06605
1501.41935,0.05852
1499.92956,0.05917
1498.43977,0.06591
1496.94999,0.07058
1495.46020,0.06897
1493.97041,0.08418
1492.48062,0.11457
1490.99083,0.11093
1489.50104,0.13111
1488.01125,0.12741
1486.52147,0.12373
1485.03168,0.15167
1483.54189,0.17638
1482.05210,0.17662
1480.56231,0.19904
1479.07252,0.21915
1477.58274,0.24208
1476.09295,0.24615
1474.60316,0.24558
1473.11337,0.27255
1471.62358,0.26899
1470.13379,0.25729
1468.64401,0.25588
1467.15422,0.27245
1465.66443,0.29663
1464.17464,0.32083
1462.68485,0.34960
1461.19506,0.37863
1459.70527,0.42377
1458.21549,0.49902
1456.72570,0.54934
1455.23591,0.56517
1453.74612,0.65799
1452.25633,0.69579
1450.76654,0.74061
1449.27676,0.75140
1447.78697,0.74147
1446.29718,0.73435
1444.80739,0.72341
1443.31760,0.71249
1441.82781,0.64831
1440.33802,0.59487
1438.84824,0.53354
1437.35845,0.49648
1435.86866,0.50515
1434.37887,0.49030
1432.88908,0.53424
1431.39929,0.60199
1429.90951,0.67770
1428.41972,0.76019
1426.92993,0.83058
1425.44014,0.87814
1423.95035,0.88853
1422.46056,0.89893
1420.97078,0.96592
1419.48099,0.96507
1417.99120,0.98732
1416.50141,0.98628
1415.01162,0.98993
1413.52183,0.96165
1412.03204,0.89397
1410.54226,0.80394
1409.05247,0.74587
1407.56268,0.67548
1406.07289,0.59111
1404.58310,0.56810
1403.09331,0.54512
1401.60353,0.48834
1400.11374,0.43975
1398.62395,0.38326
1397.13416,0.34148
1395.64437,0.29926
1394.15458,0.23607
1392.66479,0.21512
1391.17501,0.19489
1389.68522,0.15090
1388.19543,0.12046
1386.70564,0.10415
1385.21585,0.08787
1383.72606,0.06310
1382.23628,0.04045
1380.74649,0.05001
1379.25670,0.03161
1377.76691,0.01859
1376.27712,0.02403
1374.78733,0.01176
1373.29755,0.01514
1371.80776,0.01272
1370.31797,0.00309
1368.82818,0.01137
1367.33839,0.01969
1365.84860,0.01170
1364.35881,0.02075
1362.86903,0.02960
1361.37924,0.04174
1359.88945,0.06673
1358.39966,0.08405
1356.90987,0.12425
1355.42008,0.15444
1353.93030,0.22221
1352.44051,0.25583
1350.95072,0.28947
1349.46093,0.36011
1347.97114,0.46459
1346.48135,0.54413
1344.99156,0.62627
1343.50178,0.70166
1342.01199,0.72577
1340.52220,0.78209
1339.03241,0.82934
1337.54262,0.89574
1336.05283,0.93277
1334.56305,0.96983
1333.07326,0.99058
1331.58347,0.99317
1330.09368,0.96733
1328.60389,0.96530
1327.11410,0.97705
1325.62432,0.95035
1324.13453,0.91668
1322.64474,0.89189
1321.15495,0.83494
1319.66516,0.80728
1318.17537,0.77965
1316.68558,0.71601
1315.19580,0.66848
1313.70601,0.57550
1312.21622,0.54318
1310.72643,0.53654
1309.23664,0.48468
1307.74685,0.45896
1306.25707,0.41974
1304.76728,0.39979
1303.27749,0.37986
1301.78770,0.33418
1300.29791,0.29599
1298.80812,0.24686
1297.31834,0.20965
1295.82855,0.16500
1294.33876,0.15326
1292.84897,0.13314
1291.35918,0.10886
1289.86939,0.11281
1288.37960,0.11679
1286.88982,0.10750
1285.40003,0.10010
1283.91024,0.07337
1282.42045,0.05902
1280.93066,0.06918
1279.44087,0.05815
1277.95109,0.05017
1276.46130,0.05760
1274.97151,0.05620
1273.48172,0.05482
1271.99193,0.02548
1270.50214,0.03045
1269.01235,0.03334
1267.52257,0.03858
1266.03278,0.01983
1264.54299,0.01906
1263.05320,0.03464
1261.56341,0.02599
1260.07362,0.01737
1258.58384,0.01739
1257.09405,0.01138
1255.60426,0.01448
1254.11447,0.01622
1252.62468,0.01284
1251.13489,0.01788
1249.64511,0.01782
1248.15532,0.00309
1246.66553,0.00818
1245.17574,0.01330
1243.68595,0.01611
1242.19616,0.03481
1240.70637,0.03091
1239.21659,0.03053
1237.72680,0.02131
1236.23701,0.02284
1234.74722,0.00504
1233.25743,0.00557
1231.76764,0.00612
1230.27786,0.00309
1228.78807,0.02160
1227.29828,0.02077
1225.80849,0.02790
1224.31870,0.01523
1222.82891,0.01891
1221.33912,0.03568
1219.84934,0.03789
1218.35955,0.04012
1216.86976,0.03387
1215.37997,0.03254
1213.89018,0.05222
1212.40039,0.06936
1210.91061,0.06647
1209.42082,0.06640
1207.93103,0.06740
1206.44124,0.06843
1204.95145,0.06376
1203.46166,0.05912
1201.97188,0.07853
1200.48209,0.07511
1198.99230,0.05888
1197.50251,0.03264
1196.01272,0.03419
1194.52293,0.03377
1193.03314,0.03338
1191.54336,0.03966
1190.05357,0.02964
1188.56378,0.02571
1187.07399,0.03999
1185.58420,0.02118
1184.09441,0.00262
1182.60463,0.01309
1181.11484,0.02359
1179.62505,0.00309
1178.13526,0.02634
1176.64547,0.03352
1175.15568,0.02043
1173.66589,0.01460
1172.17611,0.01743
1170.68632,0.01024
1169.19653,0.00309
1167.70674,0.02631
1166.21695,0.01995
1164.72716,0.01897
1163.23738,0.03364
1161.74759,0.03760
1160.25780,0.04439
1158.76801,0.05575
1157.27822,0.06714
1155.78843,0.07680
1154.29865,0.07785
1152.80886,0.09852
1151.31907,0.09752
1149.82928,0.10331
1148.33949,0.11915
1146.84970,0.12523
1145.35991,0.13132
1143.87013,0.14607
1142.38034,0.15104
1140.89055,0.13925
1139.40076,0.16317
1137.91097,0.19340
1136.42118,0.18542
1134.93140,0.19483
1133.44161,0.20426
1131.95182,0.20427
1130.46203,0.20851
1128.97224,0.24098
1127.48245,0.23361
1125.99266,0.25727
1124.50288,0.24248
1123.01309,0.24147
1121.52330,0.24048
1120.03351,0.22459
1118.54372,0.22622
1117.05393,0.23440
1115.56415,0.23211
1114.07436,0.22378
1112.58457,0.22422
1111.09478,0.22468
1109.60499,0.22995
1108.11520,0.23268
1106.62542,0.21793
1105.13563,0.19459
1103.64584,0.19692
1102.15605,0.20931
1100.66626,0.20434
1099.17647,0.19940
1097.68668,0.18993
1096.19690,0.20194
1094.70711,0.18319
1093.21732,0.18476
1091.72753,0.18122
1090.23774,0.18167
1088.74795,0.18214
1087.25817,0.17284
1085.76838,0.14117
1084.27859,0.16434
1082.78880,0.16211
1081.29901,0.15407
1079.80922,0.16332
1078.31943,0.16804
1076.82965,0.17278
1075.33986,0.19819
1073.85007,0.18560
1072.36028,0.21293
1070.87049,0.21089
1069.38070,0.22893
1067.89092,0.23685
1066.40113,0.24479
1064.91134,0.28413
1063.42155,0.38599
1061.93176,0.48741
1060.44197,0.57696
1058.95219,0.68566
1057.46240,0.73561
1055.97261,0.78558
1054.48282,0.86543
1052.99303,0.91802
1051.50324,0.92678
1050.01345,0.93651
1048.52367,0.96374
1047.03388,0.95007
1045.54409,0.93643
1044.05430,0.89610
1042.56451,0.81429
1041.07472,0.72667
1039.58494,0.67732
1038.09515,0.61446
1036.60536,0.57636
1035.11557,0.53827
1033.62578,0.47759
1032.13599,0.39991
1030.64620,0.36889
1029.15642,0.31085
1027.66663,0.28758
1026.17684,0.26433
1024.68705,0.21079
1023.19726,0.18106
1021.70747,0.15835
1020.21769,0.15385
1018.72790,0.13306
1017.23811,0.12850
1015.74832,0.12396
1014.25853,0.10090
1012.76874,0.10562
1011.27896,0.09964
1009.78917,0.08972
1008.29938,0.06419
1006.80959,0.05676
1005.31980,0.04936
1003.83001,0.03277
1002.34022,0.01363
1000.85044,0.02088
999.36065,0.03538
997.87086,0.04045
996.38107,0.04555
994.89128,0.05336
993.40149,0.05326
991.91171,0.08234
990.42192,0.10421
988.93213,0.10232
987.44234,0.10675
985.95255,0.11120
984.46276,0.10588
982.97297,0.11084
981.48319,0.08971
979.99340,0.07397
978.50361,0.06629
977.01382,0.05864
975.52403,0.04694
974.03424,0.04085
972.54446,0.03246
971.05467,0.02572
969.56488,0.02134
968.07509,0.01220
966.58530,0.00309
965.09551,0.02779
963.60573,0.02849
962.11594,0.00660
960.62615,0.01528
959.13636,0.01862
957.64657,0.02199
956.15678,0.03097
954.66699,0.01946
953.17721,0.03549
951.68742,0.04198
950.19763,0.05025
948.70784,0.05854
947.21805,0.08003
945.72826,0.06820
944.23848,0.09556
942.74869,0.10710
941.25890,0.14478
939.76911,0.14960
938.27932,0.15444
936.78953,0.16070
935.29974,0.18868
933.80996,0.21295
932.32017,0.23958
930.83038,0.24302
929.34059,0.24649
927.85080,0.24987
926.36101,0.27986
924.87123,0.29611
923.38144,0.32405
921.89165,0.36880
920.40186,0.41358
918.91207,0.48986
917.42228,0.60232
915.93250,0.75515
914.44271,0.95815
912.95292,1.07896
911.46313,1.19979
909.97334,1.44181
908.48355,1.67289
906.99376,1.91448
905.50398,1.97839
904.01419,1.97457
902.52440,1.97077
901.03461,2.00000
899.54482,1.96558
898.05503,1.87265
896.56525,1.68015
895.07546,1.55240
893.58567,1.42467
892.09588,1.17091
890.60609,0.93793
889.11630,0.69121
887.62651,0.54271
886.13673,0.47235
884.64694,0.40202
883.15715,0.30700
881.66736,0.21013
880.17757,0.16413
878.68778,0.13867
877.19800,0.11324
875.70821,0.10159
874.21842,0.06222
872.72863,0.03546
871.23884,0.04021
869.74905,0.02714
868.25927,0.01410
866.76948,0.02685
865.27969,0.03706
863.78990,0.03983
862.30011,0.05498
860.81032,0.06025
859.32053,0.06554
857.83075,0.06841
856.34096,0.08972
854.85117,0.12016
853.36138,0.14129
851.87159,0.13853
850.38180,0.13581
848.89202,0.14395
847.40223,0.17357
845.91244,0.21860
844.42265,0.22787
842.93286,0.23715
841.44307,0.24728
839.95329,0.24950
838.46350,0.26247
836.97371,0.26660
835.48392,0.26843
833.99413,0.27028
832.50434,0.27471
831.01455,0.26682
829.52477,0.25964
828.03498,0.21891
826.54519,0.20560
825.05540,0.19231
823.56561,0.16751
822.07582,0.14226
820.58604,0.14363
819.09625,0.15259
817.60646,0.16158
816.11667,0.15089
814.62688,0.14536
813.13709,0.15220
811.64730,0.14112
810.15752,0.14999
808.66773,0.15890
807.17794,0.14322
805.68815,0.16231
804.19836,0.16697
802.70857,0.17783
801.21879,0.18872
799.72900,0.15777
798.23921,0.13803
796.74942,0.13535
795.25963,0.13607
793.76984,0.13681
792.28006,0.15332
790.79027,0.19295
789.30048,0.19644
787.81069,0.22469
786.32090,0.23511
784.83111,0.24556
783.34132,0.28088
781.85154,0.32857
780.36175,0.34971
778.87196,0.38789
777.38217,0.42609
775.89238,0.40555
774.40259,0.41069
772.91281,0.39229
771.42302,0.37684
769.93323,0.36140
768.44344,0.31952
766.95365,0.25714
765.46386,0.23654
763.97407,0.19613
762.48429,0.17732
760.99450,0.15853
759.50471,0.13615
758.01492,0.12872
756.52513,0.10173
755.03534,0.10076
753.54556,0.09982
752.05577,0.07732
750.56598,0.06232
749.07619,0.04944
747.58640,0.05290
746.09661,0.05639
744.60683,0.04032
743.11704,0.04199
741.62725,0.01780
740.13746,0.01241
738.64767,0.00704
737.15788,0.00811
735.66809,0.01130
734.17831,0.00309
732.68852,0.00611
731.19873,0.00917
729.70894,0.01003
728.21915,0.01768
726.72936,0.01299
725.23958,0.01509
723.74979,0.01010
722.26000,0.00513
720.77021,0.01337
719.28042,0.01906
717.79063,0.00309
716.30084,0.01045
714.81106,0.01784
713.32127,0.02338
711.83148,0.03781
710.34169,0.04644
708.85190,0.03678
707.36211,0.02714
705.87233,0.03864
704.38254,0.05412
702.89275,0.06077
701.40296,0.05776
699.91317,0.05477
698.42338,0.06919
696.93360,0.07989
695.44381,0.11185
693.95402,0.11257
692.46423,0.11332
690.97444,0.13765
689.48465,0.15827
687.99486,0.16749
686.50508,0.18349
685.01529,0.19952
683.52550,0.25545
682.03571,0.27083
680.54592,0.27736
679.05613,0.27763
677.56635,0.27792
676.07656,0.25654
674.58677,0.26317
673.09698,0.22901
671.60719,0.21704
670.11740,0.20508
668.62761,0.17893
667.13783,0.16329
665.64804,0.14499
664.15825,0.12672
662.66846,0.11559
661.17867,0.09538
659.68888,0.06867
658.19910,0.05982
656.70931,0.05100
655.21952,0.04605
653.72973,0.05091
652.23994,0.04904
650.75015,0.03507
649.26037,0.02112
647.77058,0.04124
646.28079,0.03387
644.79100,0.04051
643.30121,0.03505
641.81142,0.02961
640.32163,0.05055
638.83185,0.04936
637.34206,0.02837
635.85227,0.02921
634.36248,0.03008
632.87269,0.00496
631.38290,0.00455
629.89312,0.01453
628.40333,0.00880
626.91354,0.00309
625.42375,0.00898
623.93396,0.00371
622.44417,0.01059
620.95438,0.01749
619.46460,0.03234
617.97481,0.04069
616.48502,0.05956
614.99523,0.08148
613.50544,0.10343
612.01565,0.12960
610.52587,0.13760
609.03608,0.16732
607.54629,0.19916
606.05650,0.23102
604.56671,0.27130
603.07692,0.31650
601.58714,0.33316
600.09735,0.34984
598.60756,0.40398
597.11777,0.41896
595.62798,0.42860
594.13819,0.41587
592.64840,0.40317
591.15862,0.36857
589.66883,0.31954
588.17904,0.27006
586.68925,0.24509
585.19946,0.22015
583.70967,0.14205
582.21989,0.11366
580.73010,0.10150
579.24031,0.08936
577.75052,0.04704
576.26073,0.06049
574.77094,0.04691
573.28115,0.03440
571.79137,0.02192
570.30158,0.04806
568.81179,0.03667
567.32200,0.05469
565.83221,0.07274
564.34242,0.08801
562.85264,0.11217
561.36285,0.12423
559.87306,0.13071
558.38327,0.13721
556.89348,0.13605
555.40369,0.15286
553.91391,0.15804
552.42412,0.16324
550.93433,0.17686
549.44454,0.18444
547.95475,0.17852
546.46496,0.19734
544.97517,0.21619
543.48539,0.21944
541.99560,0.24743
540.50581,0.26623
539.01602,0.28506
537.52623,0.32968
536.03644,0.35543
534.54666,0.38868
533.05687,0.41868
531.56708,0.44870
530.07729,0.46499
528.58750,0.49693
527.09771,0.53530
525.60792,0.57370
524.11814,0.62577
522.62835,0.68299
521.13856,0.75493
519.64877,0.77173
518.15898,0.78856
516.66919,0.82815
515.17941,0.83302
513.68962,0.82030
512.19983,0.80760
510.71004,0.77639
509.22025,0.71628
507.73046,0.68838
506.24068,0.63637
504.75089,0.58438
503.26110,0.48448
501.77131,0.38205
500.28152,0.33316
498.79173,0.28430
497.30194,0.21552
495.81216,0.16659
494.32237,0.15581
492.83258,0.14506
491.34279,0.11369
489.85300,0.07931
488.36321,0.07318
486.87343,0.07278
485.38364,0.07241
483.89385,0.08198
482.40406,0.08900
480.91427,0.08952
479.42448,0.09006
477.93469,0.12467
476.44491,0.14042
474.95512,0.15013
473.46533,0.15986
471.97554,0.19084
470.48575,0.19899
468.99596,0.19037
467.50618,0.18375
466.01639,0.17716
464.52660,0.13433
463.03681,0.09875
461.54702,0.07765
460.05723,0.05658
458.56745,0.03693
457.07766,0.01264
455.58787,0.00785
454.09808,0.00309
452.60829,0.01636
451.11850,0.02290
449.62871,0.02095
448.13893,0.01902
446.64914,0.00930
445.15935,0.01500
443.66956,0.00417
442.17977,0.00980
440.68998,0.01545
439.20020,0.02148
437.71041,0.01774
436.22062,0.02288
434.73083,0.02805
433.24104,0.02345
431.75125,0.01350
430.26146,0.02224
428.77168,0.03100
427.28189,0.04725
425.79210,0.02551
424.30231,0.02758
422.81252,0.02967
421.32273,0.03318
419.83295,0.01690
418.34316,0.02606
416.85337,0.03525
415.36358,0.03536
413.87379,0.03503
412.38400,0.02178
410.89422,0.00856
409.40443,0.01623
407.91464,0.01133
406.42485,0.00996
404.93506,0.01082
403.44527,0.01171
401.95548,0.02556
400.46570,0.00609
398.97591,0.00857
397.48612,0.01107
395.99633,0.00893
394.50654,0.01217
393.01675,0.01964
391.52697,0.02363
390.03718,0.04654
388.54739,0.00930
387.05760,0.01149
385.56781,0.01371
384.07802,0.00663
382.58824,0.01688
381.09845,0.02133
379.60866,0.02579
378.11887,0.00860
376.62908,0.00309
375.13929,0.01884
373.64950,0.03461
372.15972,0.02441
370.66993,0.03685
369.18014,0.02949
367.69035,0.02216
366.20056,0.03352
364.71077,0.03489
363.22099,0.04199
361.73120,0.04911
360.24141,0.04285
358.75162,0.03498
357.26183,0.04451
355.77204,0.05406
354.28225,0.03227
352.79247,0.04035
351.30268,0.06327
349.81289,0.08621
348.32310,0.06871
346.83331,0.06150
345.34352,0.05022
343.85374,0.03898
342.36395,0.02624
340.87416,0.02752
339.38437,0.03302
337.89458,0.03854
336.40479,0.02263
334.91501,0.01234
333.42522,0.02575
331.93543,0.03919
330.44564,0.02664
328.95585,0.04537
327.46606,0.02925
325.97627,0.01316
324.48649,0.03710
322.99670,0.03797
321.50691,0.05321
320.01712,0.06847
318.52733,0.08480
317.03754,0.07738
315.54776,0.07510
314.05797,0.07285
312.56818,0.08182
311.07839,0.04347
309.58860,0.03103
308.09881,0.01861
306.60902,0.03164
305.11924,0.02603
303.62945,0.01485
302.13966,0.00315
300.64987,0.00801
299.16008,0.00309
