1778.52000,0.00734
1777.03021,0.00111
1775.54042,0.00739
1774.05063,0.02292
1772.56085,0.02301
1771.07106,0.01212
1769.58127,0.01167
1768.09148,0.01362
1766.60169,0.00906
1765.11190,0.01136
1763.62212,0.00000
1762.13233,0.00711
1760.64254,0.01841
1759.15275,0.01844
1757.66296,0.01938
1756.17317,0.01381
1754.68339,0.02908
1753.19360,0.01880
1751.70381,0.01419
1750.21402,0.01110
1748.72423,0.00000
1747.23444,0.01863
1745.74465,0.01915
1744.25487,0.02385
1742.76508,0.02620
1741.27529,0.01103
1739.78550,0.02384
1738.29571,0.01853
1736.80592,0.02485
1735.31614,0.01454
1733.82635,0.01199
1732.33656,0.00589
1730.84677,0.00280
1729.35698,0.01163
1727.86719,0.01959
1726.37740,0.01479
1724.88762,0.02875
1723.39783,0.01686
1721.90804,0.00648
1720.41825,0.00000
1718.92846,0.00873
1717.43867,0.00826
1715.94889,0.01733
1714.45910,0.01275
1712.96931,0.00493
1711.47952,0.01735
1709.98973,0.01523
1708.49994,0.01045
1707.01016,0.01567
1705.52037,0.02091
1704.03058,0.02394
1702.54079,0.02016
1701.05100,0.02385
1699.56121,0.03112
1698.07142,0.03069
1696.58164,0.04427
1695.09185,0.04865
1693.60206,0.04294
1692.11227,0.04648
1690.62248,0.04797
1689.13269,0.05929
1687.64291,0.06231
1686.15312,0.06506
1684.66333,0.07914
1683.17354,0.07778
1681.68375,0.07258
1680.19396,0.08436
1678.70417,0.09616
1677.21439,0.08122
1675.72460,0.08088
1674.23481,0.09663
1672.74502,0.10407
1671.25523,0.09280
1669.76544,0.11101
1668.27566,0.11912
1666.78587,0.11091
1665.29608,0.11997
1663.80629,0.13857
1662.31650,0.12062
1660.82671,0.13005
1659.33693,0.14190
1657.84714,0.12015
1656.35735,0.13175
1654.86756,0.11332
1653.37777,0.11367
1651.88798,0.11523
1650.39819,0.11235
1648.90841,0.10652
1647.41862,0.08674
1645.92883,0.08751
1644.43904,0.08831
1642.94925,0.10341
1641.45946,0.08195
1639.96968,0.07866
1638.47989,0.08908
1636.99010,0.10309
1635.50031,0.07935
1634.01052,0.10353
1632.52073,0.10126
1631.03094,0.10497
1629.54116,0.10305
1628.05137,0.10680
1626.56158,0.10583
1625.07179,0.10458
1623.58200,0.10723
1622.09221,0.11555
1620.60243,0.10664
1619.11264,0.11115
1617.62285,0.09337
1616.13306,0.08574
1614.64327,0.08199
1613.15348,0.10921
1611.66370,0.09213
1610.17391,0.08489
1608.68412,0.09256
1607.19433,0.10114
1605.70454,0.10290
1604.21475,0.09651
1602.72496,0.09015
1601.23518,0.08664
1599.74539,0.08196
1598.25560,0.08148
1596.76581,0.10571
1595.27602,0.09516
1593.78623,0.09237
1592.29645,0.07682
1590.80666,0.08836
1589.31687,0.07583
1587.82708,0.07909
1586.33729,0.08833
1584.84750,0.07737
1583.35771,0.06495
1581.86793,0.06921
1580.37814,0.07468
1578.88835,0.06977
1577.39856,0.08095
1575.90877,0.07193
1574.41898,0.06561
1572.92920,0.04712
1571.43941,0.04532
1569.94962,0.04978
1568.45983,0.05427
1566.97004,0.03827
1565.48025,0.02824
1563.99047,0.03340
1562.50068,0.03383
1561.01089,0.03994
1559.52110,0.03864
1558.03131,0.02636
1556.54152,0.02273
1555.05173,0.04560
1553.56195,0.02060
1552.07216,0.02389
1550.58237,0.01531
1549.09258,0.00526
1547.60279,0.00000
1546.11300,0.00061
1544.62322,0.00252
1543.13343,0.00416
1541.64364,0.01445
1540.15385,0.01376
1538.66406,0.01309
1537.17427,0.02197
1535.68448,0.00500
1534.19470,0.02018
1532.70491,0.01904
1531.21512,0.01256
1529.72533,0.00195
1528.23554,0.01749
1526.74575,0.02235
1525.25597,0.02516
1523.76618,0.02442
1522.27639,0.02609
1520.78660,0.00785
1519.29681,0.03753
1517.80702,0.02321
1516.31724,0.02350
1514.82745,0.02440
1513.33766,0.02608
1511.84787,0.02777
1510.35808,0.04036
1508.86829,0.02441
1507.37850,0.03228
1505.88872,0.01966
1504.39893,0.05287
1502.90914,0.06588
1501.41935,0.04411
1499.92956,0.05003
1498.43977,0.04973
1496.94999,0.05035
1495.46020,0.06974
1493.97041,0.07636
1492.48062,0.10918
1490.99083,0.10157
1489.50104,0.10440
1488.01125,0.11604
1486.52147,0.12769
1485.03168,0.14042
1483.54189,0.15941
1482.05210,0.20253
1480.56231,0.24121
1479.07252,0.25612
1477.58274,0.28147
1476.09295,0.29584
1474.60316,0.32332
1473.11337,0.32167
1471.62358,0.34712
1470.13379,0.31429
1468.64401,0.35705
1467.15422,0.38228
1465.66443,0.39296
1464.17464,0.40366
1462.68485,0.45604
1461.19506,0.48286
1459.70527,0.52547
1458.21549,0.61362
1456.72570,0.64350
1455.23591,0.70850
1453.74612,0.74348
1452.25633,0.79395
1450.76654,0.84475
1449.27676,0.82419
1447.78697,0.81108
1446.29718,0.79949
1444.80739,0.78733
1443.31760,0.77519
1441.82781,0.69080
1440.33802,0.63558
1438.84824,0.56433
1437.35845,0.51214
1435.86866,0.52393
1434.37887,0.55389
1432.88908,0.56633
1431.39929,0.63085
1429.90951,0.70789
1428.41972,0.81411
1426.92993,0.82843
1425.44014,0.91209
1423.95035,0.91799
1422.46056,0.92392
1420.97078,0.95828
1419.48099,0.98255
1417.99120,1.02737
1416.50141,1.01451
1415.01162,1.00019
1413.52183,0.94574
1412.03204,0.85621
1410.54226,0.80626
1409.05247,0.74267
1407.56268,0.67582
1406.07289,0.61793
1404.58310,0.59308
1403.09331,0.56825
1401.60353,0.47831
1400.11374,0.44015
1398.62395,0.37941
1397.13416,0.33446
1395.64437,0.28537
1394.15458,0.23512
1392.66479,0.20393
1391.17501,0.17188
1389.68522,0.13212
1388.19543,0.08494
1386.70564,0.07780
1385.21585,0.07069
1383.72606,0.03549
1382.23628,0.03751
1380.74649,0.04163
1379.25670,0.03387
1377.76691,0.02049
1376.27712,0.00000
1374.78733,0.01183
1373.29755,0.01447
1371.80776,0.01148
1370.31797,0.00524
1368.82818,0.00840
1367.33839,0.01158
1365.84860,0.01286
1364.35881,0.02904
1362.86903,0.04613
1361.37924,0.05700
1359.88945,0.08040
1358.39966,0.10649
1356.90987,0.13470
1355.42008,0.19476
1353.93030,0.23729
1352.44051,0.27271
1350.95072,0.30816
1349.46093,0.40580
1347.97114,0.49068
1346.48135,0.55476
1344.99156,0.60399
1343.50178,0.67586
1342.01199,0.73050
1340.52220,0.76047
1339.03241,0.82885
1337.54262,0.93295
1336.05283,0.94069
1334.56305,0.94846
1333.07326,0.99611
1331.58347,0.93343
1330.09368,0.91153
1328.60389,0.95807
1327.11410,0.96151
1325.62432,0.91470
1324.13453,0.89558
1322.64474,0.84317
1321.15495,0.78573
1319.66516,0.76475
1318.17537,0.74380
1316.68558,0.65699
1315.19580,0.61631
1313.70601,0.57506
1312.21622,0.55912
1310.72643,0.52655
1309.23664,0.47318
1307.74685,0.45047
1306.25707,0.42452
1304.76728,0.39176
1303.27749,0.35902
1301.78770,0.32750
1300.29791,0.27428
1298.80812,0.23894
1297.31834,0.20036
1295.82855,0.13681
1294.33876,0.13219
1292.84897,0.12045
1291.35918,0.08940
1289.86939,0.08694
1288.37960,0.08450
1286.88982,0.08893
1285.40003,0.09071
1283.91024,0.07110
1282.42045,0.08037
1280.93066,0.06586
1279.44087,0.07072
1277.95109,0.04823
1276.46130,0.05255
1274.97151,0.04707
1273.48172,0.04162
1271.99193,0.02578
1270.50214,0.03139
1269.01235,0.03494
1267.52257,0.03554
1266.03278,0.02605
1264.54299,0.02313
1263.05320,0.03363
1261.56341,0.03344
1260.07362,0.03328
1258.58384,0.03731
1257.09405,0.02232
1255.60426,0.01926
1254.11447,0.01177
1252.62468,0.02453
1251.13489,0.00042
1249.64511,0.01710
1248.15532,0.01506
1246.66553,0.02658
1245.17574,0.03813
1243.68595,0.03915
1242.19616,0.03275
1240.70637,0.01478
1239.21659,0.01409
1237.72680,0.02889
1236.23701,0.03330
1234.74722,0.01276
1233.25743,0.00636
1231.76764,0.00000
1230.27786,0.00961
1228.78807,0.01537
1227.29828,0.01343
1225.80849,0.00377
1224.31870,0.00129
1222.82891,0.02382
1221.33912,0.02437
1219.84934,0.02821
1218.35955,0.03208
1216.86976,0.02468
1215.37997,0.03455
1213.89018,0.08639
1212.40039,0.08620
1210.91061,0.09317
1209.42082,0.08590
1207.93103,0.07924
1206.44124,0.07261
1204.95145,0.05589
1203.46166,0.05228
1201.97188,0.06120
1200.48209,0.05973
1198.99230,0.05739
1197.50251,0.03396
1196.01272,0.01710
1194.52293,0.01811
1193.03314,0.01915
1191.54336,0.02318
1190.05357,0.01595
1188.56378,0.01885
1187.07399,0.00601
1185.58420,0.01193
1184.09441,0.01640
1182.60463,0.01732
1181.11484,0.01826
1179.62505,0.04363
1178.13526,0.03660
1176.64547,0.01382
1175.15568,0.00000
1173.66589,0.02408
1172.17611,0.01309
1170.68632,0.01060
1169.19653,0.00814
1167.70674,0.02013
1166.21695,0.01965
1164.72716,0.03408
1163.23738,0.03692
1161.74759,0.02909
1160.25780,0.04359
1158.76801,0.04904
1157.27822,0.05452
1155.78843,0.07534
1154.29865,0.05930
1152.80886,0.08345
1151.31907,0.06628
1149.82928,0.06876
1148.33949,0.12481
1146.84970,0.13018
1145.35991,0.13556
1143.87013,0.15183
1142.38034,0.14106
1140.89055,0.13626
1139.40076,0.18236
1137.91097,0.18802
1136.42118,0.21662
1134.93140,0.20955
1133.44161,0.20250
1131.95182,0.22790
1130.46203,0.21079
1128.97224,0.22553
1127.48245,0.22483
1125.99266,0.23755
1124.50288,0.23928
1123.01309,0.23925
1121.52330,0.23925
1120.03351,0.24225
1118.54372,0.23903
1117.05393,0.22632
1115.56415,0.21988
1114.07436,0.20454
1112.58457,0.20826
1111.09478,0.21201
1109.60499,0.22203
1108.11520,0.23268
1106.62542,0.24543
1105.13563,0.22132
1103.64584,0.19813
1102.15605,0.19311
1100.66626,0.18559
1099.17647,0.17809
1097.68668,0.18416
1096.19690,0.17924
1094.70711,0.18893
1093.21732,0.21173
1091.72753,0.20986
1090.23774,0.21308
1088.74795,0.21633
1087.25817,0.20740
1085.76838,0.18333
1084.27859,0.16524
1082.78880,0.19714
1081.29901,0.19784
1079.80922,0.18874
1078.31943,0.20362
1076.82965,0.21853
1075.33986,0.19999
1073.85007,0.21331
1072.36028,0.20762
1070.87049,0.22694
1069.38070,0.23141
1067.89092,0.24349
1066.40113,0.25560
1064.91134,0.36932
1063.42155,0.44857
1061.93176,0.55966
1060.44197,0.65918
1058.95219,0.74772
1057.46240,0.80074
1055.97261,0.85378
1054.48282,0.94061
1052.99303,0.99237
1051.50324,1.00637
1050.01345,0.97905
1048.52367,1.04338
1047.03388,1.02980
1045.54409,1.01624
1044.05430,0.93816
1042.56451,0.86159
1041.07472,0.79754
1039.58494,0.73977
1038.09515,0.69600
1036.60536,0.63634
1035.11557,0.57671
1033.62578,0.49315
1032.13599,0.45990
1030.64620,0.39335
1029.15642,0.32267
1027.66663,0.29440
1026.17684,0.26615
1024.68705,0.21488
1023.19726,0.21926
1021.70747,0.17607
1020.21769,0.18497
1018.72790,0.17396
1017.23811,0.16193
1015.74832,0.14993
1014.25853,0.15358
1012.76874,0.14505
1011.27896,0.15826
1009.78917,0.17805
1008.29938,0.13628
1006.80959,0.12622
1005.31980,0.11619
1003.83001,0.05873
1002.34022,0.01350
1000.85044,0.02243
999.36065,0.05995
997.87086,0.05822
996.38107,0.05652
994.89128,0.05098
993.40149,0.06629
991.91171,0.11256
990.42192,0.09788
988.93213,0.12516
987.44234,0.11454
985.95255,0.10395
984.46276,0.12001
982.97297,0.11170
981.48319,0.08557
979.99340,0.06125
978.50361,0.06313
977.01382,0.06504
975.52403,0.03872
974.03424,0.02997
972.54446,0.00846
971.05467,0.01285
969.56488,0.00923
968.07509,0.00460
966.58530,0.00000
965.09551,0.01476
963.60573,0.03134
962.11594,0.01909
960.62615,0.02411
959.13636,0.01340
957.64657,0.00271
956.15678,0.01911
954.66699,0.02811
953.17721,0.06599
951.68742,0.06492
950.19763,0.08292
948.70784,0.10094
947.21805,0.09251
945.72826,0.04455
944.23848,0.08288
942.74869,0.11469
941.25890,0.11618
939.76911,0.14760
938.27932,0.17904
936.78953,0.18210
935.29974,0.22058
933.80996,0.21031
932.32017,0.22772
930.83038,0.23564
929.34059,0.24359
927.85080,0.26822
926.36101,0.27324
924.87123,0.30804
923.38144,0.36517
921.89165,0.41385
920.40186,0.46256
918.91207,0.53345
917.42228,0.65941
915.93250,0.81126
914.44271,0.97207
912.95292,1.07266
911.46313,1.17328
909.97334,1.46089
908.48355,1.66880
906.99376,1.80564
905.50398,1.81192
904.01419,1.83042
902.52440,1.84894
901.03461,1.93740
899.54482,2.00000
898.05503,1.85143
896.56525,1.64249
895.07546,1.50751
893.58567,1.37255
892.09588,1.11966
890.60609,0.89031
889.11630,0.67883
887.62651,0.53847
886.13673,0.47294
884.64694,0.40745
883.15715,0.26508
881.66736,0.20276
880.17757,0.15028
878.68778,0.13278
877.19800,0.11530
875.70821,0.06409
874.21842,0.03670
872.72863,0.03076
871.23884,0.01889
869.74905,0.01002
868.25927,0.00118
866.76948,0.01794
865.27969,0.05288
863.78990,0.08190
862.30011,0.06572
860.81032,0.06028
859.32053,0.05486
857.83075,0.05869
856.34096,0.08605
854.85117,0.10778
853.36138,0.11705
851.87159,0.11831
850.38180,0.11959
848.89202,0.14410
847.40223,0.20463
845.91244,0.19201
844.42265,0.20768
842.93286,0.22337
841.44307,0.19209
839.95329,0.23996
838.46350,0.27714
836.97371,0.29740
835.48392,0.28020
833.99413,0.26303
832.50434,0.26879
831.01455,0.28201
829.52477,0.25658
828.03498,0.20441
826.54519,0.17666
825.05540,0.14893
823.56561,0.13551
822.07582,0.11646
820.58604,0.11469
819.09625,0.11800
817.60646,0.12134
816.11667,0.10210
814.62688,0.09954
813.13709,0.08808
811.64730,0.08052
810.15752,0.09202
808.66773,0.10355
807.17794,0.10231
805.68815,0.10645
804.19836,0.11864
802.70857,0.11897
801.21879,0.11932
799.72900,0.10750
798.23921,0.13735
796.74942,0.11160
795.25963,0.11845
793.76984,0.12533
792.28006,0.12226
790.79027,0.15522
789.30048,0.13793
787.81069,0.14981
786.32090,0.16232
784.83111,0.17486
783.34132,0.21389
781.85154,0.25057
780.36175,0.33160
778.87196,0.36015
777.38217,0.38873
775.89238,0.36185
774.40259,0.39866
772.91281,0.40099
771.42302,0.38787
769.93323,0.37479
768.44344,0.32930
766.95365,0.26688
765.46386,0.26488
763.97407,0.21947
762.48429,0.19580
760.99450,0.17216
759.50471,0.13754
758.01492,0.12109
756.52513,0.07997
755.03534,0.08663
753.54556,0.09331
752.05577,0.09332
750.56598,0.07402
749.07619,0.03006
747.58640,0.03699
746.09661,0.04395
744.60683,0.02386
743.11704,0.04188
741.62725,0.01233
740.13746,0.00615
738.64767,0.00000
737.15788,0.02252
735.66809,0.00341
734.17831,0.00575
732.68852,0.01377
731.19873,0.02181
729.70894,0.01768
728.21915,0.00822
726.72936,0.00742
725.23958,0.00634
723.74979,0.00589
722.26000,0.00546
720.77021,0.00000
719.28042,0.02175
717.79063,0.03461
716.30084,0.02458
714.81106,0.01458
713.32127,0.03198
711.83148,0.04404
710.34169,0.03204
708.85190,0.02973
707.36211,0.02744
705.87233,0.03158
704.38254,0.04645
702.89275,0.05183
701.40296,0.04995
699.91317,0.04809
698.42338,0.07912
696.93360,0.08520
695.44381,0.10945
693.95402,0.11617
692.46423,0.12292
690.97444,0.12851
689.48465,0.15940
687.99486,0.13916
686.50508,0.15032
685.01529,0.16151
683.52550,0.19578
682.03571,0.20539
680.54592,0.25161
679.05613,0.24669
677.56635,0.24180
676.07656,0.21701
674.58677,0.21931
673.09698,0.20914
671.60719,0.21000
670.11740,0.21089
668.62761,0.18355
667.13783,0.16277
665.64804,0.13830
664.15825,0.11386
662.66846,0.10625
661.17867,0.09659
659.68888,0.07446
658.19910,0.06306
656.70931,0.05169
655.21952,0.04183
653.72973,0.04300
652.23994,0.04658
650.75015,0.04424
649.26037,0.04192
647.77058,0.06223
646.28079,0.04390
644.79100,0.03154
643.30121,0.03483
641.81142,0.03815
640.32163,0.05502
638.83185,0.02670
637.34206,0.01745
635.85227,0.01551
634.36248,0.01360
632.87269,0.00264
631.38290,0.00944
629.89312,0.01091
628.40333,0.01077
626.91354,0.01065
625.42375,0.00000
623.93396,0.02602
622.44417,0.01355
620.95438,0.00111
619.46460,0.02542
617.97481,0.03668
616.48502,0.06492
614.99523,0.07890
613.50544,0.09291
612.01565,0.10665
610.52587,0.12874
609.03608,0.17346
607.54629,0.18921
606.05650,0.20499
604.56671,0.28192
603.07692,0.29997
601.58714,0.32847
600.09735,0.35699
598.60756,0.37929
597.11777,0.36562
595.62798,0.40641
594.13819,0.39250
592.64840,0.37861
591.15862,0.37873
589.66883,0.30540
588.17904,0.24012
586.68925,0.21325
585.19946,0.18640
583.70967,0.15541
582.21989,0.13992
580.73010,0.13680
579.24031,0.13370
577.75052,0.07158
576.26073,0.08297
574.77094,0.05570
573.28115,0.05524
571.79137,0.05480
570.30158,0.03981
568.81179,0.06977
567.32200,0.08487
565.83221,0.10001
564.34242,0.10356
562.85264,0.13362
561.36285,0.14496
559.87306,0.14562
558.38327,0.14631
556.89348,0.16487
555.40369,0.18494
553.91391,0.18615
552.42412,0.18739
550.93433,0.20099
549.44454,0.19053
547.95475,0.19229
546.46496,0.20850
544.97517,0.22474
543.48539,0.24651
541.99560,0.26265
540.50581,0.29027
539.01602,0.31791
537.52623,0.38053
536.03644,0.41730
534.54666,0.44428
533.05687,0.45716
531.56708,0.47006
530.07729,0.51050
528.58750,0.51765
527.09771,0.55457
525.60792,0.59152
524.11814,0.66301
522.62835,0.66729
521.13856,0.75072
519.64877,0.78108
518.15898,0.81146
516.66919,0.83875
515.17941,0.85744
513.68962,0.87080
512.19983,0.88418
510.71004,0.81282
509.22025,0.79829
507.73046,0.71537
506.24068,0.66253
504.75089,0.60970
503.26110,0.51110
501.77131,0.37563
500.28152,0.33628
498.79173,0.29694
497.30194,0.23503
495.81216,0.21836
494.32237,0.19680
492.83258,0.17527
491.34279,0.12060
489.85300,0.08470
488.36321,0.07648
486.87343,0.09373
485.38364,0.11100
483.89385,0.11981
482.40406,0.11854
480.91427,0.10570
479.42448,0.09288
477.93469,0.13631
476.44491,0.17946
474.95512,0.18561
473.46533,0.19178
471.97554,0.23502
470.48575,0.22235
468.99596,0.22489
467.50618,0.20335
466.01639,0.18184
464.52660,0.14429
463.03681,0.09219
461.54702,0.08489
460.05723,0.07761
458.56745,0.05980
457.07766,0.05421
455.58787,0.05251
454.09808,0.05084
452.60829,0.02004
451.11850,0.02972
449.62871,0.02307
448.13893,0.01645
446.64914,0.02531
445.15935,0.00000
443.66956,0.01911
442.17977,0.02234
440.68998,0.02559
439.20020,0.03556
437.71041,0.05508
436.22062,0.06168
434.73083,0.06831
433.24104,0.06529
431.75125,0.07033
430.26146,0.07124
428.77168,0.07217
427.28189,0.06033
425.79210,0.06131
424.30231,0.05860
422.81252,0.05592
421.32273,0.04032
419.83295,0.07472
418.34316,0.05411
416.85337,0.03354
415.36358,0.00287
413.87379,0.03529
412.38400,0.02996
410.89422,0.02466
409.40443,0.03336
407.91464,0.05041
406.42485,0.05352
404.93506,0.04668
403.44527,0.03987
401.95548,0.00973
400.46570,0.00104
398.97591,0.01096
397.48612,0.02091
395.99633,0.04085
394.50654,0.06052
393.01675,0.05508
391.52697,0.04966
390.03718,0.05692
388.54739,0.02999
387.05760,0.01498
385.56781,0.00000
384.07802,0.03832
382.58824,0.01598
381.09845,0.01285
379.60866,0.00975
378.11887,0.02734
376.62908,0.02385
375.13929,0.02097
373.64950,0.01812
372.15972,0.01321
370.66993,0.04433
369.18014,0.03337
367.69035,0.02245
366.20056,0.04263
364.71077,0.02625
363.22099,0.03176
361.73120,0.03730
360.24141,0.05669
358.75162,0.02703
357.26183,0.03636
355.77204,0.04572
354.28225,0.01346
352.79247,0.03655
351.30268,0.04926
349.81289,0.06199
348.32310,0.08308
346.83331,0.03310
345.34352,0.02628
343.85374,0.01948
342.36395,0.02878
340.87416,0.07260
339.38437,0.07228
337.89458,0.07198
336.40479,0.03319
334.91501,0.04321
333.42522,0.02633
331.93543,0.00947
330.44564,0.04396
328.95585,0.04605
327.46606,0.02838
325.97627,0.01074
324.48649,0.00000
322.99670,0.06058
321.50691,0.07418
320.01712,0.08781
318.52733,0.07469
317.03754,0.04613
315.54776,0.03663
314.05797,0.02716
312.56818,0.01236
311.07839,0.00860
309.58860,0.02270
308.09881,0.03684
306.60902,0.02720
305.11924,0.05120
303.62945,0.03328
302.13966,0.01539
300.64987,0.00050
299.16008,0.00000
