1778.52000,0.01801
1777.03021,0.01964
1775.54042,0.01163
1774.05063,0.00987
1772.56085,0.01007
1771.07106,0.01072
1769.58127,0.01955
1768.09148,0.01124
1766.60169,0.00982
1765.11190,0.00520
1763.62212,0.00919
1762.13233,0.01514
1760.64254,0.01360
1759.15275,0.01487
1757.66296,0.01574
1756.17317,0.00612
1754.68339,0.01025
1753.19360,0.00733
1751.70381,0.00164
1750.21402,0.00478
1748.72423,0.00730
1747.23444,0.00490
1745.74465,0.00768
1744.25487,0.01199
1742.76508,0.01653
1741.27529,0.00651
1739.78550,0.01153
1738.29571,0.02452
1736.80592,0.02487
1735.31614,0.02288
1733.82635,0.00761
1732.33656,0.00181
1730.84677,0.01234
1729.35698,0.00702
1727.86719,0.01739
1726.37740,0.02413
1724.88762,0.01394
1723.39783,0.02631
1721.90804,0.01209
1720.41825,0.00520
1718.92846,0.01549
1717.43867,0.01421
1715.94889,0.02584
1714.45910,0.01688
1712.96931,0.01482
1711.47952,0.02029
1709.98973,0.02042
1708.49994,0.02144
1707.01016,0.01915
1705.52037,0.01689
1704.03058,0.01969
1702.54079,0.00685
1701.05100,0.00520
1699.56121,0.00988
1698.07142,0.01802
1696.58164,0.02211
1695.09185,0.01592
1693.60206,0.02285
1692.11227,0.02551
1690.62248,0.02411
1689.13269,0.02445
1687.64291,0.01881
1686.15312,0.02135
1684.66333,0.02735
1683.17354,0.01900
1681.68375,0.01216
1680.19396,0.01802
1678.70417,0.01768
1677.21439,0.02165
1675.72460,0.03703
1674.23481,0.03847
1672.74502,0.03887
1671.25523,0.04101
1669.76544,0.04618
1668.27566,0.05223
1666.78587,0.04456
1665.29608,0.04336
1663.80629,0.05249
1662.31650,0.05950
1660.82671,0.06395
1659.33693,0.05749
1657.84714,0.06886
1656.35735,0.07403
1654.86756,0.07407
1653.37777,0.06405
1651.88798,0.07209
1650.39819,0.06254
1648.90841,0.07428
1647.41862,0.06521
1645.92883,0.06680
1644.43904,0.06840
1642.94925,0.08539
1641.45946,0.07170
1639.96968,0.07241
1638.47989,0.08581
1636.99010,0.09860
1635.50031,0.08543
1634.01052,0.07551
1632.52073,0.08215
1631.03094,0.08923
1629.54116,0.09119
1628.05137,0.09317
1626.56158,0.07543
1625.07179,0.07854
1623.58200,0.11129
1622.09221,0.09834
1620.60243,0.09207
1619.11264,0.07488
1617.62285,0.07403
1616.13306,0.08951
1614.64327,0.09515
1613.15348,0.10209
1611.66370,0.11293
1610.17391,0.09889
1608.68412,0.10312
1607.19433,0.09299
1605.70454,0.08546
1604.21475,0.08976
1602.72496,0.09409
1601.23518,0.08685
1599.74539,0.09058
1598.25560,0.09391
1596.76581,0.10412
1595.27602,0.10385
1593.78623,0.07763
1592.29645,0.06259
1590.80666,0.08836
1589.31687,0.07509
1587.82708,0.07450
1586.33729,0.08489
1584.84750,0.07126
1583.35771,0.06796
1581.86793,0.06769
1580.37814,0.07603
1578.88835,0.07838
1577.39856,0.07153
1575.90877,0.07285
1574.41898,0.06820
1572.92920,0.06721
1571.43941,0.04715
1569.94962,0.04793
1568.45983,0.04873
1566.97004,0.04226
1565.48025,0.02745
1563.99047,0.02618
1562.50068,0.02601
1561.01089,0.01985
1559.52110,0.01694
1558.03131,0.00997
1556.54152,0.01762
1555.05173,0.01821
1553.56195,0.00982
1552.07216,0.01368
1550.58237,0.01070
1549.09258,0.00344
1547.60279,0.00523
1546.11300,0.00168
1544.62322,0.00882
1543.13343,0.00826
1541.64364,0.01739
1540.15385,0.01387
1538.66406,0.01038
1537.17427,0.00520
1535.68448,0.00969
1534.19470,0.01099
1532.70491,0.00674
1531.21512,0.01345
1529.72533,0.00774
1528.23554,0.02051
1526.74575,0.02387
1525.25597,0.01286
1523.76618,0.01433
1522.27639,0.01475
1520.78660,0.02357
1519.29681,0.02597
1517.80702,0.02152
1516.31724,0.03814
1514.82745,0.02752
1513.33766,0.02905
1511.84787,0.03061
1510.35808,0.04475
1508.86829,0.04066
1507.37850,0.04132
1505.88872,0.04609
1504.39893,0.03907
1502.90914,0.04797
1501.41935,0.05431
1499.92956,0.04801
1498.43977,0.06749
1496.94999,0.05330
1495.46020,0.07411
1493.97041,0.07950
1492.48062,0.10316
1490.99083,0.11203
1489.50104,0.12479
1488.01125,0.13253
1486.52147,0.14029
1485.03168,0.14368
1483.54189,0.15911
1482.05210,0.17693
1480.56231,0.19842
1479.07252,0.20448
1477.58274,0.22988
1476.09295,0.22826
1474.60316,0.22559
1473.11337,0.23669
1471.62358,0.24416
1470.13379,0.24564
1468.64401,0.26217
1467.15422,0.28581
1465.66443,0.29273
1464.17464,0.29968
1462.68485,0.34335
1461.19506,0.34026
1459.70527,0.41167
1458.21549,0.43589
1456.72570,0.48696
1455.23591,0.53011
1453.74612,0.59926
1452.25633,0.65019
1450.76654,0.70779
1449.27676,0.68450
1447.78697,0.71211
1446.29718,0.69251
1444.80739,0.67219
1443.31760,0.65189
1441.82781,0.61606
1440.33802,0.52272
1438.84824,0.47148
1437.35845,0.44709
1435.86866,0.45815
1434.37887,0.46322
1432.88908,0.49922
1431.39929,0.56766
1429.90951,0.62432
1428.41972,0.68121
1426.92993,0.72998
1425.44014,0.78907
1423.95035,0.81126
1422.46056,0.83349
1420.97078,0.86517
1419.48099,0.92479
1417.99120,0.92755
1416.50141,0.90951
1415.01162,0.85673
1413.52183,0.82715
1412.03204,0.78257
1410.54226,0.69723
1409.05247,0.65441
1407.56268,0.58973
1406.07289,0.51477
1404.58310,0.49295
1403.09331,0.47116
1401.60353,0.38897
1400.11374,0.36004
1398.62395,0.32813
1397.13416,0.27821
1395.64437,0.21844
1394.15458,0.20442
1392.66479,0.17131
1391.17501,0.14853
1389.68522,0.11290
1388.19543,0.07987
1386.70564,0.06651
1385.21585,0.05316
1383.72606,0.05476
1382.23628,0.03771
1380.74649,0.03442
1379.25670,0.02579
1377.76691,0.01697
1376.27712,0.01225
1374.78733,0.00520
1373.29755,0.00668
1371.80776,0.01184
1370.31797,0.00629
1368.82818,0.01583
1367.33839,0.02539
1365.84860,0.02242
1364.35881,0.03429
1362.86903,0.04510
1361.37924,0.04414
1359.88945,0.07776
1358.39966,0.08564
1356.90987,0.13111
1355.42008,0.17446
1353.93030,0.24660
1352.44051,0.27090
1350.95072,0.29521
1349.46093,0.37751
1347.97114,0.41648
1346.48135,0.51363
1344.99156,0.59472
1343.50178,0.63719
1342.01199,0.72175
1340.52220,0.75590
1339.03241,0.83729
1337.54262,0.85389
1336.05283,0.87008
1334.56305,0.88629
1333.07326,0.88192
1331.58347,0.85805
1330.09368,0.82797
1328.60389,0.85437
1327.11410,0.83121
1325.62432,0.80399
1324.13453,0.76822
1322.64474,0.73182
1321.15495,0.74740
1319.66516,0.70955
1318.17537,0.67172
1316.68558,0.58219
1315.19580,0.55772
1313.70601,0.55045
1312.21622,0.52388
1310.72643,0.47394
1309.23664,0.43390
1307.74685,0.42028
1306.25707,0.39360
1304.76728,0.37091
1303.27749,0.34824
1301.78770,0.33193
1300.29791,0.28345
1298.80812,0.23414
1297.31834,0.21146
1295.82855,0.17056
1294.33876,0.13033
1292.84897,0.10537
1291.35918,0.12636
1289.86939,0.11701
1288.37960,0.10768
1286.88982,0.10922
1285.40003,0.08459
1283.91024,0.09003
1282.42045,0.07125
1280.93066,0.04819
1279.44087,0.06852
1277.95109,0.06613
1276.46130,0.04980
1274.97151,0.05121
1273.48172,0.05264
1271.99193,0.03316
1270.50214,0.03475
1269.01235,0.04044
1267.52257,0.03671
1266.03278,0.03879
1264.54299,0.03661
1263.05320,0.04197
1261.56341,0.03340
1260.07362,0.02485
1258.58384,0.02234
1257.09405,0.02457
1255.60426,0.00515
1254.11447,0.02675
1252.62468,0.01553
1251.13489,0.00520
1249.64511,0.01245
1248.15532,0.00707
1246.66553,0.00944
1245.17574,0.01183
1243.68595,0.01382
1242.19616,0.02528
1240.70637,0.02559
1239.21659,0.02443
1237.72680,0.01600
1236.23701,0.02026
1234.74722,0.01895
1233.25743,0.01585
1231.76764,0.01278
1230.27786,0.02314
1228.78807,0.01506
1227.29828,0.02741
1225.80849,0.03333
1224.31870,0.00687
1222.82891,0.02594
1221.33912,0.01949
1219.84934,0.02412
1218.35955,0.02877
1216.86976,0.04021
1215.37997,0.03622
1213.89018,0.06402
1212.40039,0.07210
1210.91061,0.07097
1209.42082,0.06707
1207.93103,0.07018
1206.44124,0.07331
1204.95145,0.06348
1203.46166,0.05667
1201.97188,0.05612
1200.48209,0.06482
1198.99230,0.05981
1197.50251,0.05718
1196.01272,0.03934
1194.52293,0.04202
1193.03314,0.04472
1191.54336,0.03467
1190.05357,0.01972
1188.56378,0.02518
1187.07399,0.02422
1185.58420,0.02286
1184.09441,0.01938
1182.60463,0.01431
1181.11484,0.00926
1179.62505,0.01122
1178.13526,0.01020
1176.64547,0.02164
1175.15568,0.01208
1173.66589,0.00684
1172.17611,0.00698
1170.68632,0.00608
1169.19653,0.00520
1167.70674,0.02397
1166.21695,0.03525
1164.72716,0.03668
1163.23738,0.03427
1161.74759,0.04026
1160.25780,0.05335
1158.76801,0.05671
1157.27822,0.06008
1155.78843,0.07110
1154.29865,0.08687
1152.80886,0.10223
1151.31907,0.10453
1149.82928,0.11994
1148.33949,0.13988
1146.84970,0.12862
1145.35991,0.11738
1143.87013,0.13288
1142.38034,0.13876
1140.89055,0.14659
1139.40076,0.15830
1137.91097,0.16339
1136.42118,0.19125
1134.93140,0.18727
1133.44161,0.18330
1131.95182,0.18055
1130.46203,0.20378
1128.97224,0.22361
1127.48245,0.23638
1125.99266,0.23823
1124.50288,0.27380
1123.01309,0.26013
1121.52330,0.24649
1120.03351,0.22396
1118.54372,0.20532
1117.05393,0.21569
1115.56415,0.22307
1114.07436,0.22554
1112.58457,0.21612
1111.09478,0.20672
1109.60499,0.21935
1108.11520,0.22020
1106.62542,0.20949
1105.13563,0.20201
1103.64584,0.19435
1102.15605,0.20044
1100.66626,0.20109
1099.17647,0.20177
1097.68668,0.19613
1096.19690,0.18837
1094.70711,0.19244
1093.21732,0.19203
1091.72753,0.19637
1090.23774,0.19161
1088.74795,0.18687
1087.25817,0.17732
1085.76838,0.17059
1084.27859,0.17569
1082.78880,0.18060
1081.29901,0.16794
1079.80922,0.18534
1078.31943,0.18335
1076.82965,0.18138
1075.33986,0.21002
1073.85007,0.19039
1072.36028,0.22488
1070.87049,0.24866
1069.38070,0.26752
1067.89092,0.28663
1066.40113,0.30576
1064.91134,0.39467
1063.42155,0.46880
1061.93176,0.51097
1060.44197,0.62657
1058.95219,0.71837
1057.46240,0.77929
1055.97261,0.84023
1054.48282,0.89818
1052.99303,0.91560
1051.50324,0.91994
1050.01345,0.90650
1048.52367,0.90595
1047.03388,0.88901
1045.54409,0.87210
1044.05430,0.88279
1042.56451,0.80700
1041.07472,0.69840
1039.58494,0.63253
1038.09515,0.59502
1036.60536,0.55561
1035.11557,0.51622
1033.62578,0.46247
1032.13599,0.39329
1030.64620,0.34989
1029.15642,0.30180
1027.66663,0.25791
1026.17684,0.21405
1024.68705,0.20681
1023.19726,0.18930
1021.70747,0.15656
1020.21769,0.13287
1018.72790,0.12508
1017.23811,0.12000
1015.74832,0.11495
1014.25853,0.08727
1012.76874,0.08280
1011.27896,0.08501
1009.78917,0.07673
1008.29938,0.07083
1006.80959,0.06463
1005.31980,0.05846
1003.83001,0.03524
1002.34022,0.02021
1000.85044,0.05028
999.36065,0.06685
997.87086,0.06960
996.38107,0.07237
994.89128,0.09202
993.40149,0.11147
991.91171,0.12194
990.42192,0.14939
988.93213,0.14488
987.44234,0.14372
985.95255,0.14258
984.46276,0.15939
982.97297,0.14424
981.48319,0.13556
979.99340,0.08934
978.50361,0.07888
977.01382,0.06844
975.52403,0.05986
974.03424,0.05001
972.54446,0.04169
971.05467,0.01192
969.56488,0.01717
968.07509,0.02094
966.58530,0.02473
965.09551,0.01117
963.60573,0.00513
962.11594,0.01177
960.62615,0.00920
959.13636,0.00718
957.64657,0.00520
956.15678,0.02157
954.66699,0.03797
953.17721,0.02734
951.68742,0.05752
950.19763,0.05575
948.70784,0.05400
947.21805,0.05356
945.72826,0.05593
944.23848,0.06584
942.74869,0.10927
941.25890,0.13168
939.76911,0.14316
938.27932,0.15467
936.78953,0.16857
935.29974,0.17412
933.80996,0.19236
932.32017,0.20547
930.83038,0.21421
929.34059,0.22296
927.85080,0.23443
926.36101,0.24227
924.87123,0.29242
923.38144,0.34882
921.89165,0.37305
920.40186,0.39730
918.91207,0.50422
917.42228,0.62876
915.93250,0.76857
914.44271,0.99533
912.95292,1.12016
911.46313,1.24501
909.97334,1.49546
908.48355,1.65942
906.99376,1.81676
905.50398,1.90608
904.01419,1.95303
902.52440,2.00000
901.03461,1.99237
899.54482,1.92337
898.05503,1.77777
896.56525,1.58755
895.07546,1.44210
893.58567,1.29668
892.09588,1.05201
890.60609,0.81831
889.11630,0.61554
887.62651,0.49007
886.13673,0.40648
884.64694,0.32292
883.15715,0.23122
881.66736,0.17947
880.17757,0.13376
878.68778,0.11866
877.19800,0.10358
875.70821,0.07189
874.21842,0.04109
872.72863,0.04572
871.23884,0.02376
869.74905,0.02201
868.25927,0.02028
866.76948,0.04154
865.27969,0.03341
863.78990,0.04506
862.30011,0.05159
860.81032,0.05792
859.32053,0.06427
857.83075,0.07580
856.34096,0.09316
854.85117,0.10237
853.36138,0.11698
851.87159,0.12389
850.38180,0.13082
848.89202,0.15516
847.40223,0.19927
845.91244,0.22302
844.42265,0.22017
842.93286,0.21735
841.44307,0.22185
839.95329,0.25170
838.46350,0.25089
836.97371,0.26190
835.48392,0.25641
833.99413,0.25094
832.50434,0.27211
831.01455,0.25682
829.52477,0.24713
828.03498,0.20205
826.54519,0.19069
825.05540,0.17936
823.56561,0.16226
822.07582,0.15548
820.58604,0.12963
819.09625,0.12730
817.60646,0.12500
816.11667,0.13120
814.62688,0.12583
813.13709,0.12006
811.64730,0.11710
810.15752,0.11985
808.66773,0.12263
807.17794,0.14915
805.68815,0.14586
804.19836,0.15805
802.70857,0.15621
801.21879,0.15438
799.72900,0.15355
798.23921,0.15425
796.74942,0.13393
795.25963,0.13102
793.76984,0.12814
792.28006,0.12400
790.79027,0.13876
789.30048,0.16515
787.81069,0.18447
786.32090,0.19878
784.83111,0.21310
783.34132,0.26105
781.85154,0.32297
780.36175,0.35959
778.87196,0.36983
777.38217,0.38009
775.89238,0.41485
774.40259,0.42645
772.91281,0.40029
771.42302,0.38393
769.93323,0.36759
768.44344,0.31382
766.95365,0.26544
765.46386,0.23447
763.97407,0.20481
762.48429,0.18817
760.99450,0.17154
759.50471,0.13766
758.01492,0.13043
756.52513,0.10003
755.03534,0.09113
753.54556,0.08224
752.05577,0.06888
750.56598,0.07679
749.07619,0.06605
747.58640,0.06209
746.09661,0.05816
744.60683,0.05329
743.11704,0.05016
741.62725,0.04383
740.13746,0.03817
738.64767,0.03254
737.15788,0.01941
735.66809,0.01855
734.17831,0.00784
732.68852,0.01008
731.19873,0.01235
729.70894,0.00520
728.21915,0.01794
726.72936,0.01096
725.23958,0.01298
723.74979,0.01159
722.26000,0.01023
720.77021,0.01489
719.28042,0.00993
717.79063,0.00520
716.30084,0.00762
714.81106,0.01007
713.32127,0.01866
711.83148,0.03157
710.34169,0.01745
708.85190,0.01860
707.36211,0.01977
705.87233,0.03535
704.38254,0.03808
702.89275,0.03439
701.40296,0.04124
699.91317,0.04812
698.42338,0.06403
696.93360,0.07117
695.44381,0.08434
693.95402,0.09228
692.46423,0.10025
690.97444,0.11564
689.48465,0.14973
687.99486,0.15809
686.50508,0.17001
685.01529,0.18196
683.52550,0.19983
682.03571,0.24800
680.54592,0.25948
679.05613,0.26541
677.56635,0.27136
676.07656,0.22582
674.58677,0.23268
673.09698,0.19556
671.60719,0.18873
670.11740,0.18192
668.62761,0.14573
667.13783,0.13768
665.64804,0.12956
664.15825,0.12145
662.66846,0.11155
661.17867,0.10703
659.68888,0.07142
658.19910,0.06738
656.70931,0.06337
655.21952,0.05122
653.72973,0.02794
652.23994,0.02615
650.75015,0.02921
649.26037,0.03229
647.77058,0.02628
646.28079,0.02501
644.79100,0.04094
643.30121,0.04466
641.81142,0.04840
640.32163,0.04379
638.83185,0.03277
637.34206,0.02178
635.85227,0.02079
634.36248,0.01982
632.87269,0.00718
631.38290,0.02645
629.89312,0.02192
628.40333,0.01354
626.91354,0.00520
625.42375,0.01317
623.93396,0.01559
622.44417,0.02201
620.95438,0.02845
619.46460,0.02815
617.97481,0.06694
616.48502,0.06841
614.99523,0.07505
613.50544,0.08172
612.01565,0.10816
610.52587,0.14814
609.03608,0.18300
607.54629,0.19899
606.05650,0.21501
604.56671,0.28815
603.07692,0.32633
601.58714,0.34703
600.09735,0.36776
598.60756,0.38455
597.11777,0.43570
595.62798,0.40917
594.13819,0.39168
592.64840,0.37422
591.15862,0.33682
589.66883,0.27733
588.17904,0.23375
586.68925,0.21875
585.19946,0.20377
583.70967,0.17722
582.21989,0.13674
580.73010,0.11335
579.24031,0.08999
577.75052,0.05774
576.26073,0.08090
574.77094,0.06716
573.28115,0.06364
571.79137,0.06015
570.30158,0.05958
568.81179,0.10668
567.32200,0.10637
565.83221,0.10609
564.34242,0.11935
562.85264,0.12147
561.36285,0.13113
559.87306,0.13384
558.38327,0.13658
556.89348,0.15425
555.40369,0.15135
553.91391,0.15866
552.42412,0.16600
550.93433,0.17948
549.44454,0.19384
547.95475,0.18956
546.46496,0.20064
544.97517,0.21175
543.48539,0.23372
541.99560,0.25722
540.50581,0.26582
539.01602,0.27445
537.52623,0.32164
536.03644,0.34910
534.54666,0.37959
533.05687,0.39744
531.56708,0.41531
530.07729,0.46004
528.58750,0.52218
527.09771,0.55976
525.60792,0.59737
524.11814,0.63104
522.62835,0.64390
521.13856,0.72162
519.64877,0.74333
518.15898,0.76507
516.66919,0.79886
515.17941,0.84619
513.68962,0.83345
512.19983,0.82072
510.71004,0.73032
509.22025,0.68824
507.73046,0.63503
506.24068,0.60126
504.75089,0.56752
503.26110,0.45728
501.77131,0.40222
500.28152,0.34387
498.79173,0.28554
497.30194,0.21317
495.81216,0.16959
494.32237,0.15491
492.83258,0.14025
491.34279,0.10747
489.85300,0.09082
488.36321,0.05617
486.87343,0.06167
485.38364,0.06720
483.89385,0.05194
482.40406,0.06610
480.91427,0.07728
479.42448,0.08849
477.93469,0.12162
476.44491,0.16636
474.95512,0.16702
473.46533,0.16770
471.97554,0.18783
470.48575,0.20669
468.99596,0.20176
467.50618,0.18493
466.01639,0.16813
464.52660,0.13494
463.03681,0.09940
461.54702,0.08976
460.05723,0.08014
458.56745,0.03523
457.07766,0.01955
455.58787,0.01236
454.09808,0.00520
452.60829,0.00888
451.11850,0.01345
449.62871,0.01525
448.13893,0.01708
446.64914,0.00648
445.15935,0.01179
443.66956,0.02829
442.17977,0.02044
440.68998,0.01262
439.20020,0.00665
437.71041,0.05158
436.22062,0.03192
434.73083,0.01228
433.24104,0.02487
431.75125,0.04006
430.26146,0.04078
428.77168,0.04153
427.28189,0.02394
425.79210,0.04867
424.30231,0.04455
422.81252,0.04046
421.32273,0.02877
419.83295,0.04436
418.34316,0.03133
416.85337,0.01831
415.36358,0.01574
413.87379,0.02027
412.38400,0.02450
410.89422,0.02876
409.40443,0.02885
407.91464,0.04743
406.42485,0.02933
404.93506,0.03239
403.44527,0.03548
401.95548,0.03656
400.46570,0.02413
398.97591,0.02193
397.48612,0.01975
395.99633,0.02843
394.50654,0.04766
393.01675,0.05800
391.52697,0.06837
390.03718,0.04860
388.54739,0.02049
387.05760,0.02163
385.56781,0.02279
384.07802,0.00520
382.58824,0.01671
381.09845,0.01891
379.60866,0.02113
378.11887,0.00696
376.62908,0.00397
375.13929,0.00197
373.64950,0.00000
372.15972,0.02501
370.66993,0.02686
369.18014,0.03379
367.69035,0.04073
366.20056,0.03536
364.71077,0.01391
363.22099,0.01750
361.73120,0.02110
360.24141,0.00939
358.75162,0.05544
357.26183,0.05890
355.77204,0.06240
354.28225,0.04670
352.79247,0.07353
351.30268,0.07859
349.81289,0.08368
348.32310,0.07667
346.83331,0.06582
345.34352,0.06647
343.85374,0.06715
342.36395,0.06345
340.87416,0.07180
339.38437,0.05484
337.89458,0.03791
336.40479,0.02358
334.91501,0.03438
333.42522,0.01978
331.93543,0.00520
330.44564,0.02434
328.95585,0.03384
327.46606,0.02523
325.97627,0.01665
324.48649,0.03437
322.99670,0.07936
321.50691,0.08629
320.01712,0.09324
318.52733,0.07263
317.03754,0.02628
315.54776,0.03019
314.05797,0.03412
312.56818,0.03873
311.07839,0.08177
309.58860,0.07183
308.09881,0.06190
306.60902,0.06660
305.11924,0.05050
303.62945,0.02831
302.13966,0.00614
300.64987,0.02337
299.16008,0.00520
