1778.52000,0.01842
1777.03021,0.01109
1775.54042,0.00697
1774.05063,0.01904
1772.56085,0.01156
1771.07106,0.01262
1769.58127,0.00966
1768.09148,0.00736
1766.60169,0.00508
1765.11190,0.00496
1763.62212,0.00273
1762.13233,0.00882
1760.64254,0.01111
1759.15275,0.00959
1757.66296,0.00873
1756.17317,0.00535
1754.68339,0.00262
1753.19360,0.00311
1751.70381,0.00320
1750.21402,0.00523
1748.72423,0.00303
1747.23444,0.00680
1745.74465,0.00273
1744.25487,0.00460
1742.76508,0.00692
1741.27529,0.00650
1739.78550,0.01010
1738.29571,0.00926
1736.80592,0.01143
1735.31614,0.01383
1733.82635,0.01561
1732.33656,0.00466
1730.84677,0.00181
1729.35698,0.00516
1727.86719,0.01406
1726.37740,0.00916
1724.88762,0.00768
1723.39783,0.00474
1721.90804,0.00629
1720.41825,0.00319
1718.92846,0.00351
1717.43867,0.00787
1715.94889,0.00907
1714.45910,0.01815
1712.96931,0.00983
1711.47952,0.00684
1709.98973,0.01239
1708.49994,0.00860
1707.01016,0.00781
1705.52037,0.00705
1704.03058,0.00652
1702.54079,0.00346
1701.05100,0.00405
1699.56121,0.00465
1698.07142,0.00273
1696.58164,0.00934
1695.09185,0.00875
1693.60206,0.02243
1692.11227,0.01061
1690.62248,0.01158
1689.13269,0.01767
1687.64291,0.01677
1686.15312,0.02185
1684.66333,0.01015
1683.17354,0.00273
1681.68375,0.01690
1680.19396,0.01748
1678.70417,0.01937
1677.21439,0.02553
1675.72460,0.01109
1674.23481,0.02856
1672.74502,0.02416
1671.25523,0.03531
1669.76544,0.03840
1668.27566,0.03960
1666.78587,0.03742
1665.29608,0.02910
1663.80629,0.04887
1662.31650,0.06675
1660.82671,0.06594
1659.33693,0.06644
1657.84714,0.07227
1656.35735,0.06494
1654.86756,0.06210
1653.37777,0.07034
1651.88798,0.07010
1650.39819,0.06712
1648.90841,0.06331
1647.41862,0.06442
1645.92883,0.06289
1644.43904,0.06139
1642.94925,0.06108
1641.45946,0.06845
1639.96968,0.08158
1638.47989,0.08049
1636.99010,0.07985
1635.50031,0.07562
1634.01052,0.07801
1632.52073,0.07701
1631.03094,0.08880
1629.54116,0.09806
1628.05137,0.09331
1626.56158,0.08646
1625.07179,0.09154
1623.58200,0.08962
1622.09221,0.08922
1620.60243,0.09586
1619.11264,0.09444
1617.62285,0.08262
1616.13306,0.08657
1614.64327,0.08373
1613.15348,0.08794
1611.66370,0.09919
1610.17391,0.10302
1608.68412,0.08496
1607.19433,0.09947
1605.70454,0.09912
1604.21475,0.09177
1602.72496,0.08445
1601.23518,0.09692
1599.74539,0.08136
1598.25560,0.08644
1596.76581,0.10069
1595.27602,0.09157
1593.78623,0.07971
1592.29645,0.09339
1590.80666,0.07945
1589.31687,0.07383
1587.82708,0.07610
1586.33729,0.06968
1584.84750,0.07072
1583.35771,0.08561
1581.86793,0.07543
1580.37814,0.07909
1578.88835,0.06811
1577.39856,0.07331
1575.90877,0.06961
1574.41898,0.05380
1572.92920,0.06099
1571.43941,0.04757
1569.94962,0.05460
1568.45983,0.06164
1566.97004,0.04957
1565.48025,0.02966
1563.99047,0.04230
1562.50068,0.03520
1561.01089,0.02152
1559.52110,0.03211
1558.03131,0.02465
1556.54152,0.00828
1555.05173,0.01427
1553.56195,0.00900
1552.07216,0.01248
1550.58237,0.00259
1549.09258,0.00080
1547.60279,0.00265
1546.11300,0.00091
1544.62322,0.00787
1543.13343,0.00954
1541.64364,0.00273
1540.15385,0.00476
1538.66406,0.00682
1537.17427,0.00794
1535.68448,0.01653
1534.19470,0.01642
1532.70491,0.02974
1531.21512,0.01926
1529.72533,0.01986
1528.23554,0.00986
1526.74575,0.02582
1525.25597,0.03691
1523.76618,0.02825
1522.27639,0.03302
1520.78660,0.04269
1519.29681,0.02815
1517.80702,0.03022
1516.31724,0.03317
1514.82745,0.04081
1513.33766,0.04721
1511.84787,0.05362
1510.35808,0.04901
1508.86829,0.05207
1507.37850,0.04495
1505.88872,0.04147
1504.39893,0.06204
1502.90914,0.06711
1501.41935,0.06370
1499.92956,0.06393
1498.43977,0.06737
1496.94999,0.06892
1495.46020,0.08474
1493.97041,0.08273
1492.48062,0.10561
1490.99083,0.10003
1489.50104,0.11467
1488.01125,0.12285
1486.52147,0.13105
1485.03168,0.15491
1483.54189,0.16518
1482.05210,0.15549
1480.56231,0.19962
1479.07252,0.21124
1477.58274,0.22820
1476.09295,0.21392
1474.60316,0.22348
1473.11337,0.22988
1471.62358,0.23013
1470.13379,0.22552
1468.64401,0.23263
1467.15422,0.25018
1465.66443,0.26690
1464.17464,0.28365
1462.68485,0.32679
1461.19506,0.36378
1459.70527,0.39549
1458.21549,0.44997
1456.72570,0.49022
1455.23591,0.54709
1453.74612,0.58484
1452.25633,0.63155
1450.76654,0.66659
1449.27676,0.67634
1447.78697,0.68166
1446.29718,0.65297
1444.80739,0.64185
1443.31760,0.63075
1441.82781,0.58385
1440.33802,0.53740
1438.84824,0.50522
1437.35845,0.45605
1435.86866,0.47218
1434.37887,0.48047
1432.88908,0.53748
1431.39929,0.57432
1429.90951,0.64860
1428.41972,0.71525
1426.92993,0.77618
1425.44014,0.79759
1423.95035,0.81540
1422.46056,0.83324
1420.97078,0.88215
1419.48099,0.92087
1417.99120,0.92773
1416.50141,0.92120
1415.01162,0.88217
1413.52183,0.84529
1412.03204,0.78504
1410.54226,0.74183
1409.05247,0.69460
1407.56268,0.61167
1406.07289,0.56597
1404.58310,0.52647
1403.09331,0.48699
1401.60353,0.43520
1400.11374,0.39662
1398.62395,0.35211
1397.13416,0.30932
1395.64437,0.28591
1394.15458,0.23062
1392.66479,0.20577
1391.17501,0.16861
1389.68522,0.13317
1388.19543,0.09074
1386.70564,0.08512
1385.21585,0.07952
1383.72606,0.05396
1382.23628,0.04330
1380.74649,0.04054
1379.25670,0.04397
1377.76691,0.01723
1376.27712,0.01135
1374.78733,0.00720
1373.29755,0.00328
1371.80776,0.00938
1370.31797,0.00870
1368.82818,0.00570
1367.33839,0.00273
1365.84860,0.02023
1364.35881,0.02222
1362.86903,0.04657
1361.37924,0.05287
1359.88945,0.07960
1358.39966,0.09594
1356.90987,0.12017
1355.42008,0.16335
1353.93030,0.21527
1352.44051,0.24457
1350.95072,0.27390
1349.46093,0.37331
1347.97114,0.43341
1346.48135,0.49863
1344.99156,0.54389
1343.50178,0.61512
1342.01199,0.65128
1340.52220,0.67833
1339.03241,0.75388
1337.54262,0.81733
1336.05283,0.84221
1334.56305,0.86712
1333.07326,0.88556
1331.58347,0.84938
1330.09368,0.83938
1328.60389,0.81260
1327.11410,0.87983
1325.62432,0.84758
1324.13453,0.80492
1322.64474,0.78207
1321.15495,0.72160
1319.66516,0.68465
1318.17537,0.64772
1316.68558,0.60051
1315.19580,0.54502
1313.70601,0.49701
1312.21622,0.51281
1310.72643,0.46526
1309.23664,0.45262
1307.74685,0.40108
1306.25707,0.36211
1304.76728,0.34060
1303.27749,0.31912
1301.78770,0.30170
1300.29791,0.25347
1298.80812,0.21633
1297.31834,0.18261
1295.82855,0.14466
1294.33876,0.12161
1292.84897,0.09328
1291.35918,0.07922
1289.86939,0.07655
1288.37960,0.07392
1286.88982,0.06099
1285.40003,0.08657
1283.91024,0.05944
1282.42045,0.05722
1280.93066,0.05225
1279.44087,0.03158
1277.95109,0.03474
1276.46130,0.03452
1274.97151,0.02816
1273.48172,0.02183
1271.99193,0.01594
1270.50214,0.00838
1269.01235,0.00892
1267.52257,0.02139
1266.03278,0.01794
1264.54299,0.02196
1263.05320,0.00452
1261.56341,0.00699
1260.07362,0.00948
1258.58384,0.01656
1257.09405,0.00369
1255.60426,0.00210
1254.11447,0.00607
1252.62468,0.00900
1251.13489,0.00302
1249.64511,0.00153
1248.15532,0.00222
1246.66553,0.00336
1245.17574,0.00452
1243.68595,0.00273
1242.19616,0.01633
1240.70637,0.00954
1239.21659,0.01235
1237.72680,0.01177
1236.23701,0.00505
1234.74722,0.00601
1233.25743,0.01051
1231.76764,0.01503
1230.27786,0.00947
1228.78807,0.00712
1227.29828,0.02117
1225.80849,0.00462
1224.31870,0.00639
1222.82891,0.01307
1221.33912,0.02956
1219.84934,0.02289
1218.35955,0.01624
1216.86976,0.01005
1215.37997,0.04194
1213.89018,0.05280
1212.40039,0.05518
1210.91061,0.06056
1209.42082,0.06554
1207.93103,0.06278
1206.44124,0.06005
1204.95145,0.05532
1203.46166,0.05742
1201.97188,0.06167
1200.48209,0.06254
1198.99230,0.06853
1197.50251,0.05393
1196.01272,0.04424
1194.52293,0.03797
1193.03314,0.03173
1191.54336,0.03678
1190.05357,0.02974
1188.56378,0.02400
1187.07399,0.02040
1185.58420,0.01385
1184.09441,0.00393
1182.60463,0.01029
1181.11484,0.01668
1179.62505,0.01193
1178.13526,0.02230
1176.64547,0.01738
1175.15568,0.01611
1173.66589,0.00273
1172.17611,0.00958
1170.68632,0.01316
1169.19653,0.01677
1167.70674,0.03049
1166.21695,0.04637
1164.72716,0.05419
1163.23738,0.02865
1161.74759,0.04418
1160.25780,0.05462
1158.76801,0.05722
1157.27822,0.05985
1155.78843,0.07929
1154.29865,0.08430
1152.80886,0.11060
1151.31907,0.11269
1149.82928,0.12500
1148.33949,0.14563
1146.84970,0.14778
1145.35991,0.14996
1143.87013,0.14875
1142.38034,0.16395
1140.89055,0.17066
1139.40076,0.18846
1137.91097,0.20564
1136.42118,0.23411
1134.93140,0.23284
1133.44161,0.23159
1131.95182,0.22590
1130.46203,0.24554
1128.97224,0.26499
1127.48245,0.26256
1125.99266,0.27398
1124.50288,0.25905
1123.01309,0.25988
1121.52330,0.26074
1120.03351,0.24949
1118.54372,0.25508
1117.05393,0.26451
1115.56415,0.23611
1114.07436,0.24028
1112.58457,0.24553
1111.09478,0.25080
1109.60499,0.24590
1108.11520,0.24824
1106.62542,0.23105
1105.13563,0.22685
1103.64584,0.22310
1102.15605,0.22490
1100.66626,0.22364
1099.17647,0.22241
1097.68668,0.21684
1096.19690,0.20853
1094.70711,0.20982
1093.21732,0.21963
1091.72753,0.21565
1090.23774,0.20998
1088.74795,0.20434
1087.25817,0.19299
1085.76838,0.19548
1084.27859,0.19246
1082.78880,0.19053
1081.29901,0.18374
1079.80922,0.18377
1078.31943,0.18978
1076.82965,0.19582
1075.33986,0.21591
1073.85007,0.20774
1072.36028,0.21746
1070.87049,0.21785
1069.38070,0.24378
1067.89092,0.26218
1066.40113,0.28061
1064.91134,0.35148
1063.42155,0.44002
1061.93176,0.52604
1060.44197,0.61760
1058.95219,0.70218
1057.46240,0.75839
1055.97261,0.81462
1054.48282,0.88906
1052.99303,0.93630
1051.50324,0.95528
1050.01345,0.95345
1048.52367,0.94845
1047.03388,0.94497
1045.54409,0.94151
1044.05430,0.85854
1042.56451,0.79112
1041.07472,0.74584
1039.58494,0.67762
1038.09515,0.64621
1036.60536,0.61014
1035.11557,0.57410
1033.62578,0.50895
1032.13599,0.42299
1030.64620,0.38425
1029.15642,0.33321
1027.66663,0.29654
1026.17684,0.25990
1024.68705,0.22764
1023.19726,0.18689
1021.70747,0.16255
1020.21769,0.13780
1018.72790,0.12669
1017.23811,0.12272
1015.74832,0.11878
1014.25853,0.09052
1012.76874,0.07780
1011.27896,0.07382
1009.78917,0.06434
1008.29938,0.04297
1006.80959,0.05119
1005.31980,0.05942
1003.83001,0.01261
1002.34022,0.00942
1000.85044,0.02474
999.36065,0.04669
997.87086,0.04664
996.38107,0.04663
994.89128,0.06290
993.40149,0.08791
991.91171,0.10147
990.42192,0.11080
988.93213,0.11675
987.44234,0.12431
985.95255,0.13190
984.46276,0.12176
982.97297,0.11739
981.48319,0.10921
979.99340,0.08468
978.50361,0.07303
977.01382,0.06142
975.52403,0.04376
974.03424,0.03698
972.54446,0.03681
971.05467,0.02795
969.56488,0.00273
968.07509,0.01080
966.58530,0.01890
965.09551,0.01246
963.60573,0.00242
962.11594,0.02069
960.62615,0.00177
959.13636,0.00662
957.64657,0.01150
956.15678,0.00620
954.66699,0.02049
953.17721,0.02756
951.68742,0.03148
950.19763,0.04179
948.70784,0.05213
947.21805,0.07227
945.72826,0.05587
944.23848,0.07819
942.74869,0.08777
941.25890,0.10695
939.76911,0.11360
938.27932,0.12028
936.78953,0.14803
935.29974,0.17198
933.80996,0.19361
932.32017,0.23250
930.83038,0.23908
929.34059,0.24569
927.85080,0.24233
926.36101,0.26429
924.87123,0.28181
923.38144,0.31871
921.89165,0.35096
920.40186,0.38322
918.91207,0.46528
917.42228,0.59881
915.93250,0.73747
914.44271,0.91507
912.95292,1.03337
911.46313,1.15168
909.97334,1.40974
908.48355,1.67313
906.99376,1.80959
905.50398,1.83657
904.01419,1.88122
902.52440,1.92589
901.03461,1.95911
899.54482,2.00000
898.05503,1.83848
896.56525,1.64487
895.07546,1.52093
893.58567,1.39701
892.09588,1.10566
890.60609,0.88982
889.11630,0.67295
887.62651,0.52010
886.13673,0.44670
884.64694,0.37332
883.15715,0.24989
881.66736,0.17496
880.17757,0.11048
878.68778,0.10928
877.19800,0.10811
875.70821,0.05221
874.21842,0.02886
872.72863,0.02212
871.23884,0.01286
869.74905,0.01234
868.25927,0.01184
866.76948,0.01137
865.27969,0.02048
863.78990,0.01325
862.30011,0.03050
860.81032,0.03076
859.32053,0.03104
857.83075,0.04368
856.34096,0.05018
854.85117,0.08902
853.36138,0.10832
851.87159,0.10904
850.38180,0.10979
848.89202,0.12576
847.40223,0.15047
845.91244,0.17308
844.42265,0.17679
842.93286,0.18053
841.44307,0.19513
839.95329,0.21890
838.46350,0.21484
836.97371,0.21973
835.48392,0.22050
833.99413,0.22129
832.50434,0.21605
831.01455,0.22741
829.52477,0.19883
828.03498,0.17367
826.54519,0.16214
825.05540,0.15063
823.56561,0.12661
822.07582,0.11791
820.58604,0.10606
819.09625,0.10432
817.60646,0.10261
816.11667,0.09891
814.62688,0.12287
813.13709,0.10369
811.64730,0.11366
810.15752,0.10452
808.66773,0.09540
807.17794,0.13033
805.68815,0.12062
804.19836,0.11583
802.70857,0.12074
801.21879,0.12567
799.72900,0.11159
798.23921,0.10647
796.74942,0.11732
795.25963,0.12001
793.76984,0.12272
792.28006,0.13449
790.79027,0.14777
789.30048,0.15959
787.81069,0.17229
786.32090,0.17767
784.83111,0.18307
783.34132,0.21753
781.85154,0.26604
780.36175,0.30161
778.87196,0.31349
777.38217,0.32539
775.89238,0.34954
774.40259,0.37096
772.91281,0.36432
771.42302,0.34326
769.93323,0.32221
768.44344,0.27567
766.95365,0.23150
765.46386,0.19947
763.97407,0.17448
762.48429,0.15834
760.99450,0.14222
759.50471,0.09625
758.01492,0.08050
756.52513,0.06945
755.03534,0.06693
753.54556,0.06444
752.05577,0.06005
750.56598,0.06037
749.07619,0.03945
747.58640,0.03641
746.09661,0.03339
744.60683,0.02381
743.11704,0.01553
741.62725,0.01684
740.13746,0.00977
738.64767,0.00273
737.15788,0.01460
735.66809,0.01096
734.17831,0.00587
732.68852,0.00451
731.19873,0.00318
729.70894,0.00773
728.21915,0.01102
726.72936,0.01327
725.23958,0.01745
723.74979,0.01826
722.26000,0.01910
720.77021,0.00273
719.28042,0.02184
717.79063,0.01757
716.30084,0.01769
714.81106,0.01784
713.32127,0.01492
711.83148,0.02394
710.34169,0.03553
708.85190,0.03035
707.36211,0.02519
705.87233,0.05004
704.38254,0.06087
702.89275,0.05430
701.40296,0.05572
699.91317,0.05716
698.42338,0.07426
696.93360,0.08479
695.44381,0.11533
693.95402,0.11188
692.46423,0.10844
690.97444,0.11843
689.48465,0.15672
687.99486,0.20206
686.50508,0.20478
685.01529,0.20753
683.52550,0.23060
682.03571,0.26030
680.54592,0.28236
679.05613,0.27659
677.56635,0.27084
676.07656,0.25555
674.58677,0.23730
673.09698,0.24332
671.60719,0.22874
670.11740,0.21418
668.62761,0.18518
667.13783,0.15515
665.64804,0.14800
664.15825,0.14087
662.66846,0.12792
661.17867,0.10308
659.68888,0.08295
658.19910,0.06262
656.70931,0.04232
655.21952,0.05246
653.72973,0.04092
652.23994,0.04004
650.75015,0.03270
649.26037,0.02539
647.77058,0.04245
646.28079,0.04677
644.79100,0.03835
643.30121,0.04219
641.81142,0.04605
640.32163,0.06875
638.83185,0.04810
637.34206,0.03088
635.85227,0.02824
634.36248,0.02563
632.87269,0.00273
631.38290,0.01188
629.89312,0.01382
628.40333,0.00759
626.91354,0.00139
625.42375,0.00000
623.93396,0.00774
622.44417,0.01944
620.95438,0.03116
619.46460,0.05130
617.97481,0.05276
616.48502,0.09655
614.99523,0.10231
613.50544,0.10808
612.01565,0.11920
610.52587,0.17096
609.03608,0.19850
607.54629,0.22171
606.05650,0.24493
604.56671,0.31741
603.07692,0.34314
601.58714,0.36473
600.09735,0.38636
598.60756,0.43554
597.11777,0.45455
595.62798,0.45977
594.13819,0.44385
592.64840,0.42795
591.15862,0.36497
589.66883,0.31946
588.17904,0.27355
586.68925,0.23786
585.19946,0.20220
583.70967,0.16359
582.21989,0.15881
580.73010,0.13290
579.24031,0.10701
577.75052,0.09358
576.26073,0.06614
574.77094,0.06318
573.28115,0.06120
571.79137,0.05925
570.30158,0.05232
568.81179,0.06689
567.32200,0.08107
565.83221,0.09526
564.34242,0.10416
562.85264,0.13669
561.36285,0.15457
559.87306,0.15228
558.38327,0.15001
556.89348,0.17093
555.40369,0.15829
553.91391,0.17438
552.42412,0.19049
550.93433,0.19131
549.44454,0.18876
547.95475,0.19622
546.46496,0.19552
544.97517,0.19484
543.48539,0.21450
541.99560,0.24800
540.50581,0.27280
539.01602,0.29763
537.52623,0.36438
536.03644,0.38522
534.54666,0.42139
533.05687,0.45195
531.56708,0.48253
530.07729,0.48922
528.58750,0.53803
527.09771,0.57963
525.60792,0.62126
524.11814,0.68652
522.62835,0.75010
521.13856,0.80392
519.64877,0.83502
518.15898,0.86613
516.66919,0.94023
515.17941,0.94375
513.68962,0.92390
512.19983,0.90408
510.71004,0.84600
509.22025,0.77264
507.73046,0.70228
506.24068,0.66831
504.75089,0.63436
503.26110,0.54365
501.77131,0.44128
500.28152,0.37922
498.79173,0.31719
497.30194,0.25422
495.81216,0.19405
494.32237,0.17589
492.83258,0.15776
491.34279,0.12190
489.85300,0.07691
488.36321,0.09426
486.87343,0.09376
485.38364,0.09329
483.89385,0.07180
482.40406,0.09604
480.91427,0.10946
479.42448,0.12291
477.93469,0.14127
476.44491,0.17412
474.95512,0.17201
473.46533,0.16992
471.97554,0.19859
470.48575,0.20580
468.99596,0.20963
467.50618,0.18701
466.01639,0.16442
464.52660,0.11622
463.03681,0.07634
461.54702,0.06924
460.05723,0.06215
458.56745,0.04255
457.07766,0.02828
455.58787,0.02616
454.09808,0.02407
452.60829,0.02242
451.11850,0.02441
449.62871,0.02440
448.13893,0.02442
446.64914,0.01309
445.15935,0.00624
443.66956,0.00304
442.17977,0.00751
440.68998,0.01201
439.20020,0.02567
437.71041,0.04191
436.22062,0.04531
434.73083,0.04873
433.24104,0.02613
431.75125,0.03927
430.26146,0.04032
428.77168,0.04139
427.28189,0.02505
425.79210,0.01554
424.30231,0.03816
422.81252,0.06080
421.32273,0.04179
419.83295,0.04088
418.34316,0.03287
416.85337,0.02488
415.36358,0.02680
413.87379,0.03045
412.38400,0.01658
410.89422,0.00273
409.40443,0.04196
407.91464,0.02719
406.42485,0.02691
404.93506,0.03612
403.44527,0.04535
401.95548,0.03259
400.46570,0.01795
398.97591,0.01842
397.48612,0.01892
395.99633,0.01435
394.50654,0.03807
393.01675,0.03620
391.52697,0.03435
390.03718,0.02582
388.54739,0.01286
387.05760,0.00778
385.56781,0.00273
384.07802,0.02093
382.58824,0.02533
381.09845,0.02795
379.60866,0.03059
378.11887,0.01465
376.62908,0.01851
375.13929,0.01059
373.64950,0.00269
372.15972,0.01661
370.66993,0.00930
369.18014,0.01811
367.69035,0.02694
366.20056,0.00273
364.71077,0.04527
363.22099,0.03319
361.73120,0.02113
360.24141,0.03291
358.75162,0.03834
357.26183,0.03762
355.77204,0.03693
354.28225,0.03669
352.79247,0.05964
351.30268,0.05870
349.81289,0.05779
348.32310,0.06104
346.83331,0.04752
345.34352,0.04167
343.85374,0.03585
342.36395,0.02921
340.87416,0.05065
339.38437,0.03746
337.89458,0.02430
336.40479,0.01328
334.91501,0.03674
333.42522,0.02555
331.93543,0.01440
330.44564,0.02283
328.95585,0.02873
327.46606,0.03114
325.97627,0.03358
324.48649,0.01149
322.99670,0.06699
321.50691,0.07191
320.01712,0.07685
318.52733,0.08884
317.03754,0.08150
315.54776,0.08619
314.05797,0.09091
312.56818,0.08619
311.07839,0.06916
309.58860,0.07470
308.09881,0.08025
306.60902,0.07733
305.11924,0.03807
303.62945,0.02796
302.13966,0.01788
300.64987,0.00273
299.16008,0.00273
