1778.52000,0.01413
1777.03021,0.01135
1775.54042,0.01240
1774.05063,0.02342
1772.56085,0.02218
1771.07106,0.01394
1769.58127,0.00865
1768.09148,0.01275
1766.60169,0.01044
1765.11190,0.01137
1763.62212,0.01935
1762.13233,0.02062
1760.64254,0.00437
1759.15275,0.02441
1757.66296,0.01933
1756.17317,0.01017
1754.68339,0.01654
1753.19360,0.01713
1751.70381,0.01775
1750.21402,0.01838
1748.72423,0.01905
1747.23444,0.01974
1745.74465,0.02045
1744.25487,0.02119
1742.76508,0.02196
1741.27529,0.02275
1739.78550,0.02356
1738.29571,0.02440
1736.80592,0.02527
1735.31614,0.02616
1733.82635,0.02707
1732.33656,0.00983
1730.84677,0.00958
1729.35698,0.00000
1727.86719,0.00754
1726.37740,0.01306
1724.88762,0.01333
1723.39783,0.02826
1721.90804,0.02332
1720.41825,0.00437
1718.92846,0.00602
1717.43867,0.00857
1715.94889,0.01290
1714.45910,0.02691
1712.96931,0.01111
1711.47952,0.02107
1709.98973,0.02785
1708.49994,0.01914
1707.01016,0.02143
1705.52037,0.02374
1704.03058,0.02301
1702.54079,0.01791
1701.05100,0.02483
1699.56121,0.00838
1698.07142,0.03495
1696.58164,0.03405
1695.09185,0.03874
1693.60206,0.04579
1692.11227,0.03882
1690.62248,0.03597
1689.13269,0.06211
1687.64291,0.05814
1686.15312,0.06825
1684.66333,0.05233
1683.17354,0.06921
1681.68375,0.06388
1680.19396,0.06443
1678.70417,0.05973
1677.21439,0.07993
1675.72460,0.08114
1674.23481,0.09554
1672.74502,0.07602
1671.25523,0.07789
1669.76544,0.09265
1668.27566,0.10978
1666.78587,0.11290
1665.29608,0.10375
1663.80629,0.11101
1662.31650,0.10746
1660.82671,0.11214
1659.33693,0.12737
1657.84714,0.13941
1656.35735,0.11169
1654.86756,0.10594
1653.37777,0.10430
1651.88798,0.11410
1650.39819,0.09964
1648.90841,0.10745
1647.41862,0.09567
1645.92883,0.09577
1644.43904,0.09590
1642.94925,0.09210
1641.45946,0.09417
1639.96968,0.08925
1638.47989,0.09811
1636.99010,0.09558
1635.50031,0.10566
1634.01052,0.10786
1632.52073,0.10716
1631.03094,0.10063
1629.54116,0.08302
1628.05137,0.11282
1626.56158,0.10228
1625.07179,0.10580
1623.58200,0.12807
1622.09221,0.11877
1620.60243,0.10569
1619.11264,0.11107
1617.62285,0.11092
1616.13306,0.08270
1614.64327,0.08669
1613.15348,0.10124
1611.66370,0.10499
1610.17391,0.12778
1608.68412,0.10174
1607.19433,0.08947
1605.70454,0.11497
1604.21475,0.11855
1602.72496,0.12216
1601.23518,0.09595
1599.74539,0.10283
1598.25560,0.08662
1596.76581,0.08974
1595.27602,0.08820
1593.78623,0.09723
1592.29645,0.09194
1590.80666,0.08405
1589.31687,0.07940
1587.82708,0.07506
1586.33729,0.08392
1584.84750,0.07115
1583.35771,0.08328
1581.86793,0.07553
1580.37814,0.09005
1578.88835,0.08674
1577.39856,0.07498
1575.90877,0.07845
1574.41898,0.06323
1572.92920,0.06763
1571.43941,0.05245
1569.94962,0.04769
1568.45983,0.04295
1566.97004,0.03516
1565.48025,0.03501
1563.99047,0.01469
1562.50068,0.02629
1561.01089,0.03792
1559.52110,0.03231
1558.03131,0.02204
1556.54152,0.03666
1555.05173,0.03932
1553.56195,0.02532
1552.07216,0.01603
1550.58237,0.00940
1549.09258,0.01274
1547.60279,0.01377
1546.11300,0.00575
1544.62322,0.01062
1543.13343,0.00968
1541.64364,0.00437
1540.15385,0.00691
1538.66406,0.00948
1537.17427,0.01003
1535.68448,0.00826
1534.19470,0.01910
1532.70491,0.01972
1531.21512,0.02885
1529.72533,0.00437
1528.23554,0.01006
1526.74575,0.01987
1525.25597,0.04199
1523.76618,0.03459
1522.27639,0.02780
1520.78660,0.03098
1519.29681,0.03507
1517.80702,0.01694
1516.31724,0.01581
1514.82745,0.02582
1513.33766,0.03074
1511.84787,0.03568
1510.35808,0.03407
1508.86829,0.03482
1507.37850,0.04934
1505.88872,0.03376
1504.39893,0.04717
1502.90914,0.04685
1501.41935,0.04567
1499.92956,0.05418
1498.43977,0.07529
1496.94999,0.06220
1495.46020,0.06640
1493.97041,0.09344
1492.48062,0.09797
1490.99083,0.11980
1489.50104,0.14369
1488.01125,0.13967
1486.52147,0.13568
1485.03168,0.16550
1483.54189,0.19301
1482.05210,0.21148
1480.56231,0.20831
1479.07252,0.26457
1477.58274,0.26731
1476.09295,0.29582
1474.60316,0.28691
1473.11337,0.30582
1471.62358,0.32972
1470.13379,0.31532
1468.64401,0.31236
1467.15422,0.32552
1465.66443,0.34309
1464.17464,0.36068
1462.68485,0.40054
1461.19506,0.44510
1459.70527,0.48325
1458.21549,0.54775
1456.72570,0.58040
1455.23591,0.64788
1453.74612,0.71334
1452.25633,0.74517
1450.76654,0.80249
1449.27676,0.79956
1447.78697,0.78730
1446.29718,0.74902
1444.80739,0.71677
1443.31760,0.68454
1441.82781,0.68203
1440.33802,0.60523
1438.84824,0.55450
1437.35845,0.50116
1435.86866,0.50080
1434.37887,0.50339
1432.88908,0.53702
1431.39929,0.59261
1429.90951,0.67252
1428.41972,0.74864
1426.92993,0.79905
1425.44014,0.85621
1423.95035,0.87784
1422.46056,0.89951
1420.97078,0.92982
1419.48099,0.95256
1417.99120,0.94519
1416.50141,0.97675
1415.01162,0.92028
1413.52183,0.88782
1412.03204,0.82232
1410.54226,0.74515
1409.05247,0.70019
1407.56268,0.61312
1406.07289,0.56265
1404.58310,0.51249
1403.09331,0.46236
1401.60353,0.42806
1400.11374,0.38763
1398.62395,0.34606
1397.13416,0.31242
1395.64437,0.25305
1394.15458,0.23233
1392.66479,0.19115
1391.17501,0.16463
1389.68522,0.13520
1388.19543,0.09703
1386.70564,0.08916
1385.21585,0.08131
1383.72606,0.05199
1382.23628,0.02123
1380.74649,0.01360
1379.25670,0.02531
1377.76691,0.03091
1376.27712,0.02511
1374.78733,0.00179
1373.29755,0.01459
1371.80776,0.02040
1370.31797,0.02096
1368.82818,0.01774
1367.33839,0.01455
1365.84860,0.00437
1364.35881,0.02438
1362.86903,0.04998
1361.37924,0.06449
1359.88945,0.06879
1358.39966,0.10149
1356.90987,0.14503
1355.42008,0.18188
1353.93030,0.25035
1352.44051,0.27656
1350.95072,0.30280
1349.46093,0.38656
1347.97114,0.48497
1346.48135,0.58048
1344.99156,0.63066
1343.50178,0.69989
1342.01199,0.73579
1340.52220,0.75972
1339.03241,0.82785
1337.54262,0.87494
1336.05283,0.90319
1334.56305,0.93146
1333.07326,0.98068
1331.58347,0.98223
1330.09368,0.93290
1328.60389,0.93041
1327.11410,0.94462
1325.62432,0.91906
1324.13453,0.91577
1322.64474,0.86657
1321.15495,0.80013
1319.66516,0.78710
1318.17537,0.77411
1316.68558,0.68931
1315.19580,0.64638
1313.70601,0.60757
1312.21622,0.53718
1310.72643,0.53294
1309.23664,0.49274
1307.74685,0.46514
1306.25707,0.43465
1304.76728,0.40813
1303.27749,0.38163
1301.78770,0.35238
1300.29791,0.32930
1298.80812,0.25475
1297.31834,0.19632
1295.82855,0.19087
1294.33876,0.15268
1292.84897,0.13353
1291.35918,0.10825
1289.86939,0.11490
1288.37960,0.12157
1286.88982,0.09754
1285.40003,0.08905
1283.91024,0.08585
1282.42045,0.06336
1280.93066,0.07045
1279.44087,0.07931
1277.95109,0.07387
1276.46130,0.04651
1274.97151,0.04682
1273.48172,0.04716
1271.99193,0.02251
1270.50214,0.01778
1269.01235,0.03296
1267.52257,0.04233
1266.03278,0.02772
1264.54299,0.02221
1263.05320,0.01848
1261.56341,0.02677
1260.07362,0.03509
1258.58384,0.01827
1257.09405,0.00938
1255.60426,0.02304
1254.11447,0.01448
1252.62468,0.01649
1251.13489,0.00389
1249.64511,0.01414
1248.15532,0.01476
1246.66553,0.00955
1245.17574,0.00437
1243.68595,0.01679
1242.19616,0.02223
1240.70637,0.05548
1239.21659,0.04194
1237.72680,0.02843
1236.23701,0.01465
1234.74722,0.01261
1233.25743,0.01599
1231.76764,0.01941
1230.27786,0.01041
1228.78807,0.00437
1227.29828,0.00530
1225.80849,0.02206
1224.31870,0.01925
1222.82891,0.00943
1221.33912,0.02598
1219.84934,0.03567
1218.35955,0.04539
1216.86976,0.05762
1215.37997,0.04413
1213.89018,0.07923
1212.40039,0.08158
1210.91061,0.09743
1209.42082,0.08286
1207.93103,0.07345
1206.44124,0.06406
1204.95145,0.08761
1203.46166,0.08719
1201.97188,0.07861
1200.48209,0.09491
1198.99230,0.08082
1197.50251,0.06354
1196.01272,0.03750
1194.52293,0.04542
1193.03314,0.05337
1191.54336,0.04292
1190.05357,0.02108
1188.56378,0.03934
1187.07399,0.03364
1185.58420,0.01217
1184.09441,0.01354
1182.60463,0.00894
1181.11484,0.00437
1179.62505,0.02485
1178.13526,0.06468
1176.64547,0.06532
1175.15568,0.02854
1173.66589,0.01461
1172.17611,0.01269
1170.68632,0.01300
1169.19653,0.01333
1167.70674,0.01851
1166.21695,0.02928
1164.72716,0.03978
1163.23738,0.02719
1161.74759,0.02311
1160.25780,0.04421
1158.76801,0.04691
1157.27822,0.04964
1155.78843,0.06790
1154.29865,0.09144
1152.80886,0.08986
1151.31907,0.09824
1149.82928,0.11689
1148.33949,0.13557
1146.84970,0.12998
1145.35991,0.12442
1143.87013,0.10924
1142.38034,0.13913
1140.89055,0.13686
1139.40076,0.17032
1137.91097,0.17249
1136.42118,0.17498
1134.93140,0.20178
1133.44161,0.22861
1131.95182,0.21274
1130.46203,0.23698
1128.97224,0.25277
1127.48245,0.26038
1125.99266,0.26188
1124.50288,0.25521
1123.01309,0.25178
1121.52330,0.24838
1120.03351,0.20990
1118.54372,0.22439
1117.05393,0.23131
1115.56415,0.24761
1114.07436,0.28734
1112.58457,0.26727
1111.09478,0.24722
1109.60499,0.24226
1108.11520,0.23558
1106.62542,0.21809
1105.13563,0.22345
1103.64584,0.21860
1102.15605,0.22488
1100.66626,0.21964
1099.17647,0.21442
1097.68668,0.17865
1096.19690,0.21167
1094.70711,0.22276
1093.21732,0.20959
1091.72753,0.22454
1090.23774,0.21406
1088.74795,0.20361
1087.25817,0.19288
1085.76838,0.18687
1084.27859,0.19170
1082.78880,0.17783
1081.29901,0.19647
1079.80922,0.19523
1078.31943,0.20368
1076.82965,0.21215
1075.33986,0.20864
1073.85007,0.23091
1072.36028,0.25789
1070.87049,0.26120
1069.38070,0.26628
1067.89092,0.28763
1066.40113,0.30900
1064.91134,0.34546
1063.42155,0.45802
1061.93176,0.58494
1060.44197,0.66624
1058.95219,0.83358
1057.46240,0.87076
1055.97261,0.90796
1054.48282,0.96508
1052.99303,1.03539
1051.50324,1.06213
1050.01345,1.08158
1048.52367,1.06566
1047.03388,1.05708
1045.54409,1.04852
1044.05430,0.97767
1042.56451,0.87496
1041.07472,0.76291
1039.58494,0.73660
1038.09515,0.67463
1036.60536,0.62454
1035.11557,0.57446
1033.62578,0.48506
1032.13599,0.42641
1030.64620,0.36574
1029.15642,0.33259
1027.66663,0.30370
1026.17684,0.27485
1024.68705,0.23475
1023.19726,0.18356
1021.70747,0.15844
1020.21769,0.15411
1018.72790,0.15742
1017.23811,0.14012
1015.74832,0.12285
1014.25853,0.11277
1012.76874,0.12612
1011.27896,0.17227
1009.78917,0.15466
1008.29938,0.12244
1006.80959,0.11161
1005.31980,0.10081
1003.83001,0.01776
1002.34022,0.00847
1000.85044,0.04455
999.36065,0.05199
997.87086,0.05521
996.38107,0.05845
994.89128,0.07181
993.40149,0.10567
991.91171,0.10065
990.42192,0.12082
988.93213,0.13370
987.44234,0.14367
985.95255,0.15367
984.46276,0.12332
982.97297,0.11699
981.48319,0.10512
979.99340,0.07983
978.50361,0.07518
977.01382,0.07055
975.52403,0.06113
974.03424,0.05641
972.54446,0.02597
971.05467,0.01311
969.56488,0.00437
968.07509,0.00660
966.58530,0.00885
965.09551,0.01888
963.60573,0.03362
962.11594,0.01415
960.62615,0.00437
959.13636,0.00641
957.64657,0.00847
956.15678,0.03411
954.66699,0.02497
953.17721,0.04452
951.68742,0.04712
950.19763,0.06482
948.70784,0.08254
947.21805,0.08756
945.72826,0.09144
944.23848,0.10294
942.74869,0.08961
941.25890,0.11931
939.76911,0.12635
938.27932,0.13343
936.78953,0.15969
935.29974,0.18510
933.80996,0.20878
932.32017,0.23102
930.83038,0.24246
929.34059,0.25392
927.85080,0.27097
926.36101,0.28541
924.87123,0.33382
923.38144,0.35797
921.89165,0.39135
920.40186,0.42477
918.91207,0.51950
917.42228,0.66224
915.93250,0.82928
914.44271,1.05048
912.95292,1.14984
911.46313,1.24923
909.97334,1.49684
908.48355,1.67981
906.99376,1.89586
905.50398,1.97268
904.01419,1.98633
902.52440,2.00000
901.03461,1.97713
899.54482,1.95838
898.05503,1.83667
896.56525,1.65822
895.07546,1.53086
893.58567,1.40352
892.09588,1.09291
890.60609,0.91018
889.11630,0.68534
887.62651,0.54099
886.13673,0.49218
884.64694,0.44340
883.15715,0.31813
881.66736,0.22713
880.17757,0.17798
878.68778,0.16222
877.19800,0.14647
875.70821,0.10618
874.21842,0.06504
872.72863,0.05785
871.23884,0.06152
869.74905,0.04620
868.25927,0.03090
866.76948,0.06068
865.27969,0.03549
863.78990,0.06503
862.30011,0.09166
860.81032,0.09200
859.32053,0.09236
857.83075,0.11234
856.34096,0.15722
854.85117,0.13395
853.36138,0.16425
851.87159,0.17322
850.38180,0.18222
848.89202,0.19270
847.40223,0.22983
845.91244,0.24592
844.42265,0.26072
842.93286,0.27554
841.44307,0.28351
839.95329,0.31960
838.46350,0.32411
836.97371,0.33889
835.48392,0.33146
833.99413,0.32405
832.50434,0.31755
831.01455,0.30697
829.52477,0.30198
828.03498,0.25898
826.54519,0.23765
825.05540,0.21635
823.56561,0.19771
822.07582,0.16535
820.58604,0.17572
819.09625,0.18509
817.60646,0.19449
816.11667,0.18153
814.62688,0.16451
813.13709,0.15043
811.64730,0.17939
810.15752,0.16931
808.66773,0.15926
807.17794,0.20730
805.68815,0.17024
804.19836,0.19230
802.70857,0.19917
801.21879,0.20606
799.72900,0.19689
798.23921,0.17283
796.74942,0.15815
795.25963,0.15929
793.76984,0.16046
792.28006,0.18097
790.79027,0.19857
789.30048,0.22586
787.81069,0.23883
786.32090,0.25110
784.83111,0.26339
783.34132,0.30716
781.85154,0.32901
780.36175,0.39682
778.87196,0.41638
777.38217,0.43596
775.89238,0.49770
774.40259,0.47170
772.91281,0.48756
771.42302,0.48032
769.93323,0.47312
768.44344,0.40245
766.95365,0.34468
765.46386,0.29718
763.97407,0.24385
762.48429,0.21760
760.99450,0.19139
759.50471,0.16739
758.01492,0.14371
756.52513,0.11186
755.03534,0.10213
753.54556,0.09242
752.05577,0.10950
750.56598,0.09853
749.07619,0.07588
747.58640,0.06393
746.09661,0.05200
744.60683,0.07419
743.11704,0.05252
741.62725,0.02999
740.13746,0.02607
738.64767,0.02217
737.15788,0.01961
735.66809,0.01386
734.17831,0.00696
732.68852,0.00565
731.19873,0.00437
729.70894,0.00797
728.21915,0.02652
726.72936,0.03252
725.23958,0.00928
723.74979,0.02027
722.26000,0.03129
720.77021,0.02024
719.28042,0.02356
717.79063,0.00437
716.30084,0.00899
714.81106,0.01363
713.32127,0.03468
711.83148,0.02504
710.34169,0.03679
708.85190,0.03583
707.36211,0.03489
705.87233,0.04232
704.38254,0.05709
702.89275,0.07042
701.40296,0.07997
699.91317,0.08955
698.42338,0.08013
696.93360,0.08566
695.44381,0.10907
693.95402,0.11114
692.46423,0.11323
690.97444,0.11740
689.48465,0.14763
687.99486,0.17467
686.50508,0.19091
685.01529,0.20718
683.52550,0.23663
682.03571,0.25880
680.54592,0.27133
679.05613,0.27951
677.56635,0.28771
676.07656,0.24590
674.58677,0.24040
673.09698,0.23141
671.60719,0.21279
670.11740,0.19420
668.62761,0.16832
667.13783,0.17932
665.64804,0.15905
664.15825,0.13880
662.66846,0.11741
661.17867,0.08288
659.68888,0.07880
658.19910,0.07357
656.70931,0.06837
655.21952,0.04857
653.72973,0.07121
652.23994,0.05906
650.75015,0.05586
649.26037,0.05269
647.77058,0.06607
646.28079,0.03998
644.79100,0.02679
643.30121,0.03103
641.81142,0.03529
640.32163,0.03885
638.83185,0.04332
637.34206,0.03464
635.85227,0.03418
634.36248,0.03374
632.87269,0.00437
631.38290,0.01968
629.89312,0.01542
628.40333,0.01382
626.91354,0.01224
625.42375,0.00747
623.93396,0.00448
622.44417,0.00459
620.95438,0.00472
619.46460,0.01789
617.97481,0.01852
616.48502,0.06861
614.99523,0.07703
613.50544,0.08548
612.01565,0.09381
610.52587,0.12557
609.03608,0.16964
607.54629,0.18916
606.05650,0.20870
604.56671,0.27362
603.07692,0.33886
601.58714,0.34941
600.09735,0.35999
598.60756,0.44373
597.11777,0.43915
595.62798,0.43107
594.13819,0.41015
592.64840,0.38926
591.15862,0.36166
589.66883,0.33204
588.17904,0.27582
586.68925,0.23484
585.19946,0.19388
583.70967,0.14856
582.21989,0.11380
580.73010,0.09779
579.24031,0.08180
577.75052,0.05530
576.26073,0.06950
574.77094,0.04861
573.28115,0.05584
571.79137,0.06309
570.30158,0.07651
568.81179,0.07064
567.32200,0.09157
565.83221,0.11253
564.34242,0.11815
562.85264,0.14281
561.36285,0.15872
559.87306,0.15272
558.38327,0.14673
556.89348,0.15336
555.40369,0.19863
553.91391,0.19828
552.42412,0.19796
550.93433,0.25325
549.44454,0.22313
547.95475,0.23956
546.46496,0.25148
544.97517,0.26343
543.48539,0.25916
541.99560,0.29734
540.50581,0.31301
539.01602,0.32872
537.52623,0.37487
536.03644,0.39472
534.54666,0.43449
533.05687,0.46536
531.56708,0.49625
530.07729,0.53551
528.58750,0.56836
527.09771,0.58894
525.60792,0.60955
524.11814,0.69309
522.62835,0.72837
521.13856,0.79148
519.64877,0.80063
518.15898,0.80981
516.66919,0.82765
515.17941,0.87827
513.68962,0.86090
512.19983,0.84356
510.71004,0.83136
509.22025,0.75950
507.73046,0.70551
506.24068,0.66179
504.75089,0.61809
503.26110,0.55248
501.77131,0.45178
500.28152,0.38885
498.79173,0.32595
497.30194,0.22064
495.81216,0.15954
494.32237,0.15332
492.83258,0.14713
491.34279,0.15574
489.85300,0.10673
488.36321,0.07940
486.87343,0.08443
485.38364,0.08948
483.89385,0.08767
482.40406,0.10960
480.91427,0.11882
479.42448,0.12806
477.93469,0.18839
476.44491,0.21890
474.95512,0.22310
473.46533,0.22732
471.97554,0.26376
470.48575,0.27242
468.99596,0.28433
467.50618,0.26774
466.01639,0.25117
464.52660,0.20464
463.03681,0.14790
461.54702,0.12482
460.05723,0.10177
458.56745,0.07027
457.07766,0.06394
455.58787,0.05691
454.09808,0.04991
452.60829,0.03459
451.11850,0.04212
449.62871,0.03797
448.13893,0.03385
446.64914,0.06486
445.15935,0.04645
443.66956,0.00437
442.17977,0.02071
440.68998,0.03708
439.20020,0.04820
437.71041,0.07866
436.22062,0.07770
434.73083,0.07676
433.24104,0.05639
431.75125,0.06383
430.26146,0.07131
428.77168,0.07881
427.28189,0.05766
425.79210,0.04502
424.30231,0.06430
422.81252,0.08360
421.32273,0.08859
419.83295,0.06259
418.34316,0.06091
416.85337,0.05924
415.36358,0.05819
413.87379,0.04692
412.38400,0.03729
410.89422,0.02768
409.40443,0.03551
407.91464,0.05038
406.42485,0.03485
404.93506,0.05109
403.44527,0.06735
401.95548,0.05658
400.46570,0.04436
398.97591,0.04022
397.48612,0.03611
395.99633,0.03392
394.50654,0.01654
393.01675,0.02581
391.52697,0.03511
390.03718,0.01839
388.54739,0.02657
387.05760,0.01795
385.56781,0.00935
384.07802,0.01933
382.58824,0.00944
381.09845,0.00689
379.60866,0.00437
378.11887,0.01709
376.62908,0.01725
375.13929,0.01247
373.64950,0.00771
372.15972,0.02258
370.66993,0.01788
369.18014,0.02227
367.69035,0.02668
366.20056,0.04194
364.71077,0.04319
363.22099,0.03890
361.73120,0.03463
360.24141,0.04210
358.75162,0.05368
357.26183,0.04906
355.77204,0.04445
354.28225,0.03797
352.79247,0.05814
351.30268,0.06459
349.81289,0.07106
348.32310,0.06322
346.83331,0.06740
345.34352,0.07672
343.85374,0.08607
342.36395,0.04995
340.87416,0.04457
339.38437,0.04625
337.89458,0.04794
336.40479,0.01865
334.91501,0.00840
333.42522,0.00637
331.93543,0.00437
330.44564,0.01650
328.95585,0.00672
327.46606,0.00794
325.97627,0.00918
324.48649,0.01352
322.99670,0.06733
321.50691,0.07245
320.01712,0.07759
318.52733,0.09900
317.03754,0.09205
315.54776,0.10502
314.05797,0.11802
312.56818,0.08804
311.07839,0.10255
309.58860,0.09602
308.09881,0.08952
306.60902,0.04735
305.11924,0.05552
303.62945,0.02993
302.13966,0.00437
300.64987,0.00743
299.16008,0.00437
