1778.52000,0.00241
1777.03021,0.00321
1775.54042,0.00129
1774.05063,0.00762
1772.56085,0.00749
1771.07106,0.00739
1769.58127,0.00507
1768.09148,0.00527
1766.60169,0.01122
1765.11190,0.00673
1763.62212,0.00775
1762.13233,0.01552
1760.64254,0.00887
1759.15275,0.01021
1757.66296,0.01207
1756.17317,0.00475
1754.68339,0.00143
1753.19360,0.01882
1751.70381,0.00957
1750.21402,0.00732
1748.72423,0.00809
1747.23444,0.00564
1745.74465,0.00521
1744.25487,0.01040
1742.76508,0.01910
1741.27529,0.01885
1739.78550,0.02236
1738.29571,0.01295
1736.80592,0.00854
1735.31614,0.01604
1733.82635,0.01509
1732.33656,0.00321
1730.84677,0.00754
1729.35698,0.00742
1727.86719,0.02451
1726.37740,0.02493
1724.88762,0.02065
1723.39783,0.02062
1721.90804,0.00243
1720.41825,0.01292
1718.92846,0.00151
1717.43867,0.00875
1715.94889,0.01302
1714.45910,0.01682
1712.96931,0.00495
1711.47952,0.01578
1709.98973,0.01841
1708.49994,0.01633
1707.01016,0.01489
1705.52037,0.01349
1704.03058,0.01721
1702.54079,0.01523
1701.05100,0.00281
1699.56121,0.01524
1698.07142,0.01349
1696.58164,0.01825
1695.09185,0.03549
1693.60206,0.01812
1692.11227,0.01946
1690.62248,0.02481
1689.13269,0.03642
1687.64291,0.02364
1686.15312,0.02732
1684.66333,0.04049
1683.17354,0.01757
1681.68375,0.03030
1680.19396,0.03557
1678.70417,0.04461
1677.21439,0.05293
1675.72460,0.05429
1674.23481,0.04621
1672.74502,0.05112
1671.25523,0.06277
1669.76544,0.06498
1668.27566,0.06248
1666.78587,0.07023
1665.29608,0.06977
1663.80629,0.09101
1662.31650,0.08612
1660.82671,0.09347
1659.33693,0.09909
1657.84714,0.08655
1656.35735,0.07852
1654.86756,0.08173
1653.37777,0.08520
1651.88798,0.07924
1650.39819,0.06583
1648.90841,0.07860
1647.41862,0.09115
1645.92883,0.08267
1644.43904,0.07421
1642.94925,0.08085
1641.45946,0.07930
1639.96968,0.07054
1638.47989,0.08025
1636.99010,0.08774
1635.50031,0.07731
1634.01052,0.07937
1632.52073,0.08195
1631.03094,0.08480
1629.54116,0.08370
1628.05137,0.10379
1626.56158,0.10622
1625.07179,0.09148
1623.58200,0.09869
1622.09221,0.09497
1620.60243,0.10572
1619.11264,0.10553
1617.62285,0.08793
1616.13306,0.07882
1614.64327,0.09739
1613.15348,0.08684
1611.66370,0.09475
1610.17391,0.09695
1608.68412,0.10142
1607.19433,0.08773
1605.70454,0.09898
1604.21475,0.09916
1602.72496,0.09937
1601.23518,0.08901
1599.74539,0.08890
1598.25560,0.08432
1596.76581,0.08974
1595.27602,0.08845
1593.78623,0.09541
1592.29645,0.08794
1590.80666,0.07353
1589.31687,0.08131
1587.82708,0.07989
1586.33729,0.08224
1584.84750,0.09159
1583.35771,0.09499
1581.86793,0.08695
1580.37814,0.08715
1578.88835,0.07966
1577.39856,0.06696
1575.90877,0.07970
1574.41898,0.06804
1572.92920,0.05442
1571.43941,0.05876
1569.94962,0.05553
1568.45983,0.05232
1566.97004,0.04901
1565.48025,0.04672
1563.99047,0.03947
1562.50068,0.03599
1561.01089,0.01958
1559.52110,0.03807
1558.03131,0.04163
1556.54152,0.03501
1555.05173,0.03065
1553.56195,0.02532
1552.07216,0.02649
1550.58237,0.03193
1549.09258,0.01422
1547.60279,0.00998
1546.11300,0.00129
1544.62322,0.00616
1543.13343,0.02102
1541.64364,0.02694
1540.15385,0.02179
1538.66406,0.01667
1537.17427,0.02067
1535.68448,0.02643
1534.19470,0.02799
1532.70491,0.02060
1531.21512,0.01672
1529.72533,0.01561
1528.23554,0.02499
1526.74575,0.03638
1525.25597,0.02687
1523.76618,0.02860
1522.27639,0.02014
1520.78660,0.02740
1519.29681,0.03443
1517.80702,0.02629
1516.31724,0.02416
1514.82745,0.03799
1513.33766,0.03441
1511.84787,0.03086
1510.35808,0.04950
1508.86829,0.03478
1507.37850,0.03105
1505.88872,0.04229
1504.39893,0.04658
1502.90914,0.05314
1501.41935,0.05574
1499.92956,0.06882
1498.43977,0.07272
1496.94999,0.07738
1495.46020,0.08332
1493.97041,0.09102
1492.48062,0.10871
1490.99083,0.12643
1489.50104,0.13122
1488.01125,0.12905
1486.52147,0.12691
1485.03168,0.15370
1483.54189,0.18973
1482.05210,0.19439
1480.56231,0.19858
1479.07252,0.26134
1477.58274,0.27305
1476.09295,0.28504
1474.60316,0.29705
1473.11337,0.29887
1471.62358,0.30221
1470.13379,0.29910
1468.64401,0.30448
1467.15422,0.32832
1465.66443,0.34086
1464.17464,0.35341
1462.68485,0.39352
1461.19506,0.45733
1459.70527,0.45738
1458.21549,0.53369
1456.72570,0.60330
1455.23591,0.63158
1453.74612,0.70024
1452.25633,0.76021
1450.76654,0.78557
1449.27676,0.78230
1447.78697,0.72001
1446.29718,0.74296
1444.80739,0.72245
1443.31760,0.70197
1441.82781,0.64551
1440.33802,0.62047
1438.84824,0.53641
1437.35845,0.51640
1435.86866,0.49816
1434.37887,0.53226
1432.88908,0.58931
1431.39929,0.62396
1429.90951,0.69252
1428.41972,0.76958
1426.92993,0.81203
1425.44014,0.84877
1423.95035,0.86498
1422.46056,0.88122
1420.97078,0.93324
1419.48099,0.94791
1417.99120,0.96385
1416.50141,0.98629
1415.01162,0.97836
1413.52183,0.90817
1412.03204,0.82829
1410.54226,0.75541
1409.05247,0.68081
1407.56268,0.64012
1406.07289,0.57504
1404.58310,0.53875
1403.09331,0.50250
1401.60353,0.47436
1400.11374,0.42208
1398.62395,0.37008
1397.13416,0.31287
1395.64437,0.26415
1394.15458,0.22792
1392.66479,0.19246
1391.17501,0.15378
1389.68522,0.12833
1388.19543,0.10416
1386.70564,0.08138
1385.21585,0.05862
1383.72606,0.04274
1382.23628,0.02638
1380.74649,0.02625
1379.25670,0.03062
1377.76691,0.02979
1376.27712,0.01079
1374.78733,0.00029
1373.29755,0.00701
1371.80776,0.00129
1370.31797,0.01129
1368.82818,0.00762
1367.33839,0.00397
1365.84860,0.00283
1364.35881,0.03328
1362.86903,0.04431
1361.37924,0.06160
1359.88945,0.07094
1358.39966,0.10497
1356.90987,0.12856
1355.42008,0.17559
1353.93030,0.23735
1352.44051,0.26301
1350.95072,0.28869
1349.46093,0.36971
1347.97114,0.46694
1346.48135,0.55947
1344.99156,0.63334
1343.50178,0.66961
1342.01199,0.68946
1340.52220,0.74770
1339.03241,0.80497
1337.54262,0.83611
1336.05283,0.88185
1334.56305,0.92761
1333.07326,0.96978
1331.58347,0.87520
1330.09368,0.88354
1328.60389,0.90287
1327.11410,0.89382
1325.62432,0.89177
1324.13453,0.85885
1322.64474,0.82022
1321.15495,0.74675
1319.66516,0.72200
1318.17537,0.69727
1316.68558,0.63683
1315.19580,0.59334
1313.70601,0.56508
1312.21622,0.54033
1310.72643,0.48073
1309.23664,0.46525
1307.74685,0.44531
1306.25707,0.42215
1304.76728,0.39429
1303.27749,0.36645
1301.78770,0.33465
1300.29791,0.28892
1298.80812,0.24945
1297.31834,0.20427
1295.82855,0.14965
1294.33876,0.12594
1292.84897,0.11895
1291.35918,0.12121
1289.86939,0.11851
1288.37960,0.11583
1286.88982,0.10744
1285.40003,0.08962
1283.91024,0.05861
1282.42045,0.07297
1280.93066,0.06619
1279.44087,0.06988
1277.95109,0.06240
1276.46130,0.06116
1274.97151,0.05758
1273.48172,0.05403
1271.99193,0.04266
1270.50214,0.02981
1269.01235,0.03368
1267.52257,0.01316
1266.03278,0.01385
1264.54299,0.03723
1263.05320,0.03123
1261.56341,0.01841
1260.07362,0.00561
1258.58384,0.02286
1257.09405,0.01622
1255.60426,0.02604
1254.11447,0.01147
1252.62468,0.01512
1251.13489,0.01580
1249.64511,0.01227
1248.15532,0.00129
1246.66553,0.00548
1245.17574,0.00969
1243.68595,0.02127
1242.19616,0.01569
1240.70637,0.03231
1239.21659,0.02404
1237.72680,0.02701
1236.23701,0.02451
1234.74722,0.01781
1233.25743,0.01487
1231.76764,0.01196
1230.27786,0.01504
1228.78807,0.01193
1227.29828,0.01606
1225.80849,0.02047
1224.31870,0.01643
1222.82891,0.02139
1221.33912,0.04755
1219.84934,0.03835
1218.35955,0.02918
1216.86976,0.01978
1215.37997,0.04529
1213.89018,0.07058
1212.40039,0.07994
1210.91061,0.07787
1209.42082,0.08280
1207.93103,0.07928
1206.44124,0.07579
1204.95145,0.07407
1203.46166,0.06738
1201.97188,0.07692
1200.48209,0.06182
1198.99230,0.07738
1197.50251,0.03144
1196.01272,0.05054
1194.52293,0.04538
1193.03314,0.04024
1191.54336,0.02877
1190.05357,0.03303
1188.56378,0.02734
1187.07399,0.01769
1185.58420,0.00433
1184.09441,0.02089
1182.60463,0.01667
1181.11484,0.01248
1179.62505,0.02986
1178.13526,0.03630
1176.64547,0.02782
1175.15568,0.01115
1173.66589,0.01094
1172.17611,0.00129
1170.68632,0.00668
1169.19653,0.01209
1167.70674,0.03048
1166.21695,0.03345
1164.72716,0.02524
1163.23738,0.04918
1161.74759,0.04401
1160.25780,0.04732
1158.76801,0.05515
1157.27822,0.06300
1155.78843,0.08085
1154.29865,0.08426
1152.80886,0.07674
1151.31907,0.09590
1149.82928,0.11659
1148.33949,0.11786
1146.84970,0.12339
1145.35991,0.12895
1143.87013,0.15471
1142.38034,0.14338
1140.89055,0.16097
1139.40076,0.17859
1137.91097,0.18377
1136.42118,0.21215
1134.93140,0.21888
1133.44161,0.22563
1131.95182,0.19828
1130.46203,0.22451
1128.97224,0.23458
1127.48245,0.23420
1125.99266,0.26275
1124.50288,0.25321
1123.01309,0.25104
1121.52330,0.24890
1120.03351,0.22922
1118.54372,0.23472
1117.05393,0.24573
1115.56415,0.25702
1114.07436,0.22971
1112.58457,0.22647
1111.09478,0.22325
1109.60499,0.23264
1108.11520,0.23957
1106.62542,0.21612
1105.13563,0.24178
1103.64584,0.21290
1102.15605,0.21868
1100.66626,0.20492
1099.17647,0.19119
1097.68668,0.21398
1096.19690,0.18547
1094.70711,0.21504
1093.21732,0.21349
1091.72753,0.22119
1090.23774,0.21645
1088.74795,0.21173
1087.25817,0.19857
1085.76838,0.18320
1084.27859,0.20447
1082.78880,0.18839
1081.29901,0.19177
1079.80922,0.19717
1078.31943,0.20808
1076.82965,0.21901
1075.33986,0.23570
1073.85007,0.24543
1072.36028,0.21956
1070.87049,0.25227
1069.38070,0.26531
1067.89092,0.28249
1066.40113,0.29970
1064.91134,0.39404
1063.42155,0.50909
1061.93176,0.59600
1060.44197,0.70686
1058.95219,0.79632
1057.46240,0.85353
1055.97261,0.91078
1054.48282,0.95222
1052.99303,1.04377
1051.50324,1.01850
1050.01345,1.00969
1048.52367,1.05821
1047.03388,1.05581
1045.54409,1.05343
1044.05430,0.96450
1042.56451,0.84770
1041.07472,0.76729
1039.58494,0.74097
1038.09515,0.65014
1036.60536,0.62088
1035.11557,0.59164
1033.62578,0.49068
1032.13599,0.43533
1030.64620,0.37005
1029.15642,0.31973
1027.66663,0.30233
1026.17684,0.28495
1024.68705,0.23770
1023.19726,0.21190
1021.70747,0.18438
1020.21769,0.14991
1018.72790,0.13938
1017.23811,0.13124
1015.74832,0.12313
1014.25853,0.11666
1012.76874,0.11121
1011.27896,0.10405
1009.78917,0.10189
1008.29938,0.10798
1006.80959,0.09142
1005.31980,0.07488
1003.83001,0.03246
1002.34022,0.01025
1000.85044,0.03240
999.36065,0.06430
997.87086,0.07019
996.38107,0.07610
994.89128,0.07718
993.40149,0.08476
991.91171,0.10756
990.42192,0.12590
988.93213,0.12932
987.44234,0.12903
985.95255,0.12876
984.46276,0.14421
982.97297,0.14474
981.48319,0.11390
979.99340,0.07487
978.50361,0.06401
977.01382,0.05317
975.52403,0.05756
974.03424,0.04603
972.54446,0.03303
971.05467,0.02005
969.56488,0.00511
968.07509,0.00925
966.58530,0.01341
965.09551,0.02171
963.60573,0.02356
962.11594,0.01372
960.62615,0.00764
959.13636,0.00445
957.64657,0.00129
956.15678,0.01461
954.66699,0.04390
953.17721,0.05428
951.68742,0.06269
950.19763,0.06739
948.70784,0.07211
947.21805,0.08832
945.72826,0.06718
944.23848,0.09041
942.74869,0.10022
941.25890,0.12699
939.76911,0.13609
938.27932,0.14522
936.78953,0.15687
935.29974,0.17876
933.80996,0.22035
932.32017,0.22734
930.83038,0.24033
929.34059,0.25335
927.85080,0.26066
926.36101,0.27721
924.87123,0.32095
923.38144,0.37866
921.89165,0.40675
920.40186,0.43486
918.91207,0.53226
917.42228,0.65061
915.93250,0.79016
914.44271,0.96412
912.95292,1.06075
911.46313,1.15740
909.97334,1.44404
908.48355,1.69533
906.99376,1.88037
905.50398,1.90923
904.01419,1.92117
902.52440,1.93314
901.03461,1.97104
899.54482,2.00000
898.05503,1.86256
896.56525,1.64068
895.07546,1.51637
893.58567,1.39208
892.09588,1.12618
890.60609,0.91536
889.11630,0.66670
887.62651,0.51349
886.13673,0.45161
884.64694,0.38975
883.15715,0.28146
881.66736,0.20856
880.17757,0.16733
878.68778,0.14544
877.19800,0.12357
875.70821,0.08391
874.21842,0.04029
872.72863,0.03132
871.23884,0.03584
869.74905,0.02680
868.25927,0.01778
866.76948,0.02312
865.27969,0.03695
863.78990,0.06276
862.30011,0.05995
860.81032,0.07049
859.32053,0.08105
857.83075,0.08031
856.34096,0.09080
854.85117,0.11476
853.36138,0.13427
851.87159,0.13250
850.38180,0.13076
848.89202,0.16031
847.40223,0.18415
845.91244,0.21375
844.42265,0.23154
842.93286,0.24935
841.44307,0.25610
839.95329,0.28605
838.46350,0.28388
836.97371,0.26928
835.48392,0.29008
833.99413,0.31091
832.50434,0.29264
831.01455,0.27690
829.52477,0.26939
828.03498,0.22006
826.54519,0.20339
825.05540,0.18675
823.56561,0.16788
822.07582,0.15203
820.58604,0.14119
819.09625,0.14445
817.60646,0.14774
816.11667,0.14519
814.62688,0.15563
813.13709,0.11177
811.64730,0.13073
810.15752,0.13339
808.66773,0.13608
807.17794,0.14763
805.68815,0.15846
804.19836,0.15014
802.70857,0.15940
801.21879,0.16868
799.72900,0.13801
798.23921,0.13900
796.74942,0.14425
795.25963,0.13906
793.76984,0.13389
792.28006,0.14619
790.79027,0.19639
789.30048,0.18980
787.81069,0.19695
786.32090,0.20087
784.83111,0.20483
783.34132,0.24094
781.85154,0.29502
780.36175,0.36158
778.87196,0.38195
777.38217,0.40235
775.89238,0.40346
774.40259,0.42951
772.91281,0.45334
771.42302,0.42563
769.93323,0.39794
768.44344,0.33415
766.95365,0.27412
765.46386,0.25697
763.97407,0.20122
762.48429,0.18425
760.99450,0.16729
759.50471,0.13604
758.01492,0.11876
756.52513,0.09653
755.03534,0.08067
753.54556,0.06483
752.05577,0.07431
750.56598,0.07310
749.07619,0.04750
747.58640,0.04510
746.09661,0.04272
744.60683,0.04834
743.11704,0.02906
741.62725,0.00633
740.13746,0.00380
738.64767,0.00129
737.15788,0.00390
735.66809,0.01975
734.17831,0.00597
732.68852,0.00567
731.19873,0.00539
729.70894,0.00713
728.21915,0.01363
726.72936,0.01318
725.23958,0.00129
723.74979,0.00976
722.26000,0.01826
720.77021,0.00000
719.28042,0.01006
717.79063,0.00170
716.30084,0.00956
714.81106,0.01745
713.32127,0.02586
711.83148,0.04651
710.34169,0.05497
708.85190,0.04664
707.36211,0.03833
705.87233,0.02594
704.38254,0.03823
702.89275,0.04507
701.40296,0.03699
699.91317,0.02893
698.42338,0.04506
696.93360,0.07044
695.44381,0.07616
693.95402,0.08962
692.46423,0.10311
690.97444,0.12834
689.48465,0.12544
687.99486,0.17388
686.50508,0.17987
685.01529,0.18589
683.52550,0.23465
682.03571,0.24059
680.54592,0.27023
679.05613,0.27186
677.56635,0.27351
676.07656,0.24392
674.58677,0.22806
673.09698,0.18806
671.60719,0.18944
670.11740,0.19085
668.62761,0.17857
667.13783,0.17255
665.64804,0.15858
664.15825,0.14464
662.66846,0.10033
661.17867,0.09615
659.68888,0.08651
658.19910,0.07404
656.70931,0.06159
655.21952,0.05951
653.72973,0.02854
652.23994,0.03174
650.75015,0.02599
649.26037,0.02027
647.77058,0.03749
646.28079,0.04153
644.79100,0.04659
643.30121,0.05417
641.81142,0.06178
640.32163,0.06119
638.83185,0.05040
637.34206,0.04338
635.85227,0.03414
634.36248,0.02493
632.87269,0.00129
631.38290,0.01809
629.89312,0.00726
628.40333,0.00567
626.91354,0.00411
625.42375,0.00357
623.93396,0.00081
622.44417,0.00505
620.95438,0.00932
619.46460,0.01785
617.97481,0.03711
616.48502,0.06462
614.99523,0.08007
613.50544,0.09555
612.01565,0.12787
610.52587,0.16345
609.03608,0.19059
607.54629,0.21314
606.05650,0.23571
604.56671,0.28709
603.07692,0.34422
601.58714,0.37223
600.09735,0.40026
598.60756,0.40814
597.11777,0.44021
595.62798,0.42272
594.13819,0.42419
592.64840,0.42569
591.15862,0.39482
589.66883,0.34903
588.17904,0.28010
586.68925,0.24059
585.19946,0.20110
583.70967,0.15840
582.21989,0.13042
580.73010,0.12078
579.24031,0.11116
577.75052,0.07554
576.26073,0.08528
574.77094,0.06789
573.28115,0.06709
571.79137,0.06632
570.30158,0.06096
568.81179,0.07083
567.32200,0.08072
565.83221,0.09063
564.34242,0.11128
562.85264,0.12050
561.36285,0.16113
559.87306,0.16405
558.38327,0.16698
556.89348,0.17356
555.40369,0.20557
553.91391,0.20783
552.42412,0.21012
550.93433,0.23424
549.44454,0.23695
547.95475,0.24641
546.46496,0.25602
544.97517,0.26566
543.48539,0.28068
541.99560,0.27554
540.50581,0.29622
539.01602,0.31692
537.52623,0.39258
536.03644,0.41096
534.54666,0.44830
533.05687,0.46735
531.56708,0.48643
530.07729,0.50516
528.58750,0.56427
527.09771,0.59974
525.60792,0.63524
524.11814,0.68446
522.62835,0.73147
521.13856,0.77800
519.64877,0.80699
518.15898,0.83601
516.66919,0.87041
515.17941,0.87693
513.68962,0.86640
512.19983,0.85591
510.71004,0.79972
509.22025,0.77718
507.73046,0.76913
506.24068,0.71600
504.75089,0.66290
503.26110,0.53658
501.77131,0.40355
500.28152,0.35725
498.79173,0.31098
497.30194,0.23906
495.81216,0.21078
494.32237,0.19597
492.83258,0.18118
491.34279,0.12232
489.85300,0.08516
488.36321,0.08366
486.87343,0.08803
485.38364,0.09243
483.89385,0.08925
482.40406,0.10105
480.91427,0.09954
479.42448,0.09806
477.93469,0.13933
476.44491,0.18261
474.95512,0.19055
473.46533,0.19851
471.97554,0.25756
470.48575,0.24514
468.99596,0.23598
467.50618,0.21340
466.01639,0.19083
464.52660,0.15385
463.03681,0.10044
461.54702,0.08306
460.05723,0.06570
458.56745,0.02956
457.07766,0.05573
455.58787,0.03720
454.09808,0.01870
452.60829,0.01530
451.11850,0.03284
449.62871,0.03970
448.13893,0.04659
446.64914,0.03556
445.15935,0.03626
443.66956,0.02154
442.17977,0.02566
440.68998,0.02980
439.20020,0.03210
437.71041,0.03991
436.22062,0.03976
434.73083,0.03964
433.24104,0.03457
431.75125,0.04197
430.26146,0.04492
428.77168,0.04788
427.28189,0.03120
425.79210,0.02799
424.30231,0.04374
422.81252,0.05951
421.32273,0.05762
419.83295,0.05152
418.34316,0.04981
416.85337,0.04812
415.36358,0.04134
413.87379,0.02463
412.38400,0.01479
410.89422,0.00497
409.40443,0.00129
407.91464,0.03360
406.42485,0.04128
404.93506,0.03901
403.44527,0.03677
401.95548,0.01512
400.46570,0.02215
398.97591,0.02945
397.48612,0.03677
395.99633,0.01946
394.50654,0.03032
393.01675,0.03772
391.52697,0.04514
390.03718,0.01622
388.54739,0.02958
387.05760,0.02515
385.56781,0.02074
384.07802,0.00129
382.58824,0.02242
381.09845,0.03536
379.60866,0.04832
378.11887,0.00948
376.62908,0.01527
375.13929,0.01310
373.64950,0.01096
372.15972,0.03102
370.66993,0.03890
369.18014,0.02575
367.69035,0.01262
366.20056,0.03906
364.71077,0.04733
363.22099,0.04878
361.73120,0.05025
360.24141,0.05138
358.75162,0.03957
357.26183,0.04934
355.77204,0.05913
354.28225,0.03070
352.79247,0.06160
351.30268,0.07570
349.81289,0.08983
348.32310,0.09215
346.83331,0.08153
345.34352,0.06484
343.85374,0.04817
342.36395,0.02916
340.87416,0.04232
339.38437,0.03407
337.89458,0.02585
336.40479,0.00594
334.91501,0.02916
333.42522,0.02549
331.93543,0.02186
330.44564,0.05661
328.95585,0.03882
327.46606,0.03027
325.97627,0.02175
324.48649,0.00129
322.99670,0.04651
321.50691,0.06373
320.01712,0.08097
318.52733,0.09238
317.03754,0.07840
315.54776,0.07255
314.05797,0.06672
312.56818,0.04783
311.07839,0.04641
309.58860,0.04539
308.09881,0.04440
306.60902,0.06622
305.11924,0.03550
303.62945,0.01838
302.13966,0.00129
300.64987,0.00589
299.16008,0.00129
