1778.52000,0.00680
1777.03021,0.00000
1775.54042,0.00137
1774.05063,0.00301
1772.56085,0.00491
1771.07106,0.00372
1769.58127,0.00710
1768.09148,0.00740
1766.60169,0.00580
1765.11190,0.00782
1763.62212,0.01059
1762.13233,0.00978
1760.64254,0.00756
1759.15275,0.01207
1757.66296,0.00559
1756.17317,0.00248
1754.68339,0.01019
1753.19360,0.00665
1751.70381,0.00385
1750.21402,0.00588
1748.72423,0.00409
1747.23444,0.00760
1745.74465,0.00994
1744.25487,0.00559
1742.76508,0.02066
1741.27529,0.01729
1739.78550,0.01108
1738.29571,0.01471
1736.80592,0.01598
1735.31614,0.01487
1733.82635,0.01402
1732.33656,0.01224
1730.84677,0.00066
1729.35698,0.01368
1727.86719,0.01547
1726.37740,0.01752
1724.88762,0.01264
1723.39783,0.01330
1721.90804,0.02190
1720.41825,0.00559
1718.92846,0.00801
1717.43867,0.01021
1715.94889,0.01867
1714.45910,0.01254
1712.96931,0.00978
1711.47952,0.00945
1709.98973,0.01681
1708.49994,0.02276
1707.01016,0.01998
1705.52037,0.01722
1704.03058,0.01845
1702.54079,0.01730
1701.05100,0.01977
1699.56121,0.01340
1698.07142,0.02766
1696.58164,0.03093
1695.09185,0.02655
1693.60206,0.03058
1692.11227,0.03320
1690.62248,0.04782
1689.13269,0.03994
1687.64291,0.03041
1686.15312,0.05086
1684.66333,0.05360
1683.17354,0.05037
1681.68375,0.04956
1680.19396,0.04039
1678.70417,0.05113
1677.21439,0.06550
1675.72460,0.06526
1674.23481,0.06554
1672.74502,0.07446
1671.25523,0.07334
1669.76544,0.07537
1668.27566,0.07238
1666.78587,0.07637
1665.29608,0.08949
1663.80629,0.10527
1662.31650,0.11317
1660.82671,0.09903
1659.33693,0.11249
1657.84714,0.10920
1656.35735,0.09322
1654.86756,0.10507
1653.37777,0.09849
1651.88798,0.08211
1650.39819,0.10170
1648.90841,0.10814
1647.41862,0.09447
1645.92883,0.09268
1644.43904,0.09092
1642.94925,0.07445
1641.45946,0.08820
1639.96968,0.08807
1638.47989,0.09971
1636.99010,0.09675
1635.50031,0.10005
1634.01052,0.09738
1632.52073,0.08898
1631.03094,0.09930
1629.54116,0.09934
1628.05137,0.12218
1626.56158,0.10261
1625.07179,0.10896
1623.58200,0.11629
1622.09221,0.11645
1620.60243,0.10968
1619.11264,0.11852
1617.62285,0.11540
1616.13306,0.09792
1614.64327,0.08646
1613.15348,0.09612
1611.66370,0.10771
1610.17391,0.10184
1608.68412,0.10365
1607.19433,0.10334
1605.70454,0.11599
1604.21475,0.11297
1602.72496,0.10997
1601.23518,0.11814
1599.74539,0.09637
1598.25560,0.11322
1596.76581,0.09390
1595.27602,0.09977
1593.78623,0.10543
1592.29645,0.10200
1590.80666,0.09764
1589.31687,0.09162
1587.82708,0.09737
1586.33729,0.09045
1584.84750,0.09841
1583.35771,0.09584
1581.86793,0.10433
1580.37814,0.08959
1578.88835,0.07919
1577.39856,0.09278
1575.90877,0.09082
1574.41898,0.07857
1572.92920,0.06875
1571.43941,0.06758
1569.94962,0.06979
1568.45983,0.07202
1566.97004,0.06109
1565.48025,0.03893
1563.99047,0.04674
1562.50068,0.03565
1561.01089,0.04376
1559.52110,0.04758
1558.03131,0.04638
1556.54152,0.05001
1555.05173,0.03568
1553.56195,0.04175
1552.07216,0.04113
1550.58237,0.02424
1549.09258,0.03326
1547.60279,0.02098
1546.11300,0.02333
1544.62322,0.00965
1543.13343,0.00559
1541.64364,0.02275
1540.15385,0.02244
1538.66406,0.02215
1537.17427,0.01733
1535.68448,0.02117
1534.19470,0.03917
1532.70491,0.02364
1531.21512,0.02875
1529.72533,0.02501
1528.23554,0.02058
1526.74575,0.02768
1525.25597,0.04223
1523.76618,0.03403
1522.27639,0.03953
1520.78660,0.04001
1519.29681,0.04267
1517.80702,0.04369
1516.31724,0.03034
1514.82745,0.03332
1513.33766,0.03656
1511.84787,0.03982
1510.35808,0.05510
1508.86829,0.05362
1507.37850,0.04329
1505.88872,0.04737
1504.39893,0.04860
1502.90914,0.05777
1501.41935,0.06288
1499.92956,0.08336
1498.43977,0.07342
1496.94999,0.07836
1495.46020,0.08070
1493.97041,0.08305
1492.48062,0.11132
1490.99083,0.11660
1489.50104,0.11328
1488.01125,0.11514
1486.52147,0.11702
1485.03168,0.14948
1483.54189,0.17262
1482.05210,0.18979
1480.56231,0.20795
1479.07252,0.22517
1477.58274,0.25848
1476.09295,0.27407
1474.60316,0.25972
1473.11337,0.27800
1471.62358,0.28695
1470.13379,0.27052
1468.64401,0.26970
1467.15422,0.28879
1465.66443,0.30048
1464.17464,0.31219
1462.68485,0.36467
1461.19506,0.40759
1459.70527,0.43879
1458.21549,0.50021
1456.72570,0.55471
1455.23591,0.59509
1453.74612,0.64628
1452.25633,0.70540
1450.76654,0.74202
1449.27676,0.71634
1447.78697,0.70076
1446.29718,0.70629
1444.80739,0.68811
1443.31760,0.66996
1441.82781,0.62211
1440.33802,0.55919
1438.84824,0.50276
1437.35845,0.47656
1435.86866,0.46524
1434.37887,0.48247
1432.88908,0.53352
1431.39929,0.59490
1429.90951,0.64744
1428.41972,0.72780
1426.92993,0.77895
1425.44014,0.81047
1423.95035,0.83146
1422.46056,0.85248
1420.97078,0.87496
1419.48099,0.89962
1417.99120,0.90130
1416.50141,0.93584
1415.01162,0.89490
1413.52183,0.85686
1412.03204,0.77954
1410.54226,0.70775
1409.05247,0.62832
1407.56268,0.57983
1406.07289,0.51890
1404.58310,0.49527
1403.09331,0.47166
1401.60353,0.43693
1400.11374,0.38857
1398.62395,0.32177
1397.13416,0.29885
1395.64437,0.25559
1394.15458,0.20948
1392.66479,0.19120
1391.17501,0.16047
1389.68522,0.12857
1388.19543,0.10916
1386.70564,0.09133
1385.21585,0.07353
1383.72606,0.04604
1382.23628,0.02433
1380.74649,0.03429
1379.25670,0.03683
1377.76691,0.03389
1376.27712,0.02402
1374.78733,0.01058
1373.29755,0.01275
1371.80776,0.00559
1370.31797,0.02104
1368.82818,0.01938
1367.33839,0.01775
1365.84860,0.01770
1364.35881,0.03013
1362.86903,0.02941
1361.37924,0.04381
1359.88945,0.07502
1358.39966,0.08443
1356.90987,0.12767
1355.42008,0.18555
1353.93030,0.21686
1352.44051,0.25453
1350.95072,0.29224
1349.46093,0.36771
1347.97114,0.44082
1346.48135,0.49022
1344.99156,0.57487
1343.50178,0.62240
1342.01199,0.68170
1340.52220,0.71394
1339.03241,0.76466
1337.54262,0.80222
1336.05283,0.83333
1334.56305,0.86447
1333.07326,0.90019
1331.58347,0.88895
1330.09368,0.86072
1328.60389,0.86343
1327.11410,0.84986
1325.62432,0.82290
1324.13453,0.82353
1322.64474,0.75946
1321.15495,0.74192
1319.66516,0.69720
1318.17537,0.65250
1316.68558,0.61155
1315.19580,0.57421
1313.70601,0.51796
1312.21622,0.47539
1310.72643,0.45659
1309.23664,0.42941
1307.74685,0.43510
1306.25707,0.38328
1304.76728,0.36313
1303.27749,0.34301
1301.78770,0.29246
1300.29791,0.26520
1298.80812,0.21854
1297.31834,0.18556
1295.82855,0.15525
1294.33876,0.12568
1292.84897,0.10645
1291.35918,0.10161
1289.86939,0.09633
1288.37960,0.09106
1286.88982,0.08199
1285.40003,0.07845
1283.91024,0.06775
1282.42045,0.05491
1280.93066,0.05121
1279.44087,0.06767
1277.95109,0.05682
1276.46130,0.05175
1274.97151,0.03999
1273.48172,0.02826
1271.99193,0.02974
1270.50214,0.03244
1269.01235,0.02078
1267.52257,0.02185
1266.03278,0.01263
1264.54299,0.01830
1263.05320,0.02640
1261.56341,0.01977
1260.07362,0.01317
1258.58384,0.00552
1257.09405,0.01467
1255.60426,0.01904
1254.11447,0.01362
1252.62468,0.01277
1251.13489,0.01938
1249.64511,0.00732
1248.15532,0.00559
1246.66553,0.01270
1245.17574,0.01984
1243.68595,0.02089
1242.19616,0.01909
1240.70637,0.01491
1239.21659,0.01628
1237.72680,0.01862
1236.23701,0.02123
1234.74722,0.01212
1233.25743,0.01813
1231.76764,0.02417
1230.27786,0.01849
1228.78807,0.01091
1227.29828,0.02278
1225.80849,0.02819
1224.31870,0.00559
1222.82891,0.01209
1221.33912,0.02964
1219.84934,0.02852
1218.35955,0.02743
1216.86976,0.03091
1215.37997,0.05288
1213.89018,0.06216
1212.40039,0.06260
1210.91061,0.06211
1209.42082,0.08297
1207.93103,0.07246
1206.44124,0.06197
1204.95145,0.07068
1203.46166,0.05856
1201.97188,0.06900
1200.48209,0.05214
1198.99230,0.04848
1197.50251,0.02927
1196.01272,0.02590
1194.52293,0.02807
1193.03314,0.03027
1191.54336,0.01643
1190.05357,0.03161
1188.56378,0.02765
1187.07399,0.01843
1185.58420,0.01332
1184.09441,0.00559
1182.60463,0.00682
1181.11484,0.00807
1179.62505,0.02109
1178.13526,0.02814
1176.64547,0.02827
1175.15568,0.01164
1173.66589,0.00559
1172.17611,0.00641
1170.68632,0.00858
1169.19653,0.01077
1167.70674,0.01167
1166.21695,0.02457
1164.72716,0.02647
1163.23738,0.02313
1161.74759,0.03083
1160.25780,0.04935
1158.76801,0.05770
1157.27822,0.06608
1155.78843,0.07868
1154.29865,0.07811
1152.80886,0.07733
1151.31907,0.07802
1149.82928,0.09862
1148.33949,0.11110
1146.84970,0.12719
1145.35991,0.14332
1143.87013,0.13861
1142.38034,0.14543
1140.89055,0.14844
1139.40076,0.16562
1137.91097,0.19672
1136.42118,0.22257
1134.93140,0.22460
1133.44161,0.22666
1131.95182,0.24707
1130.46203,0.25217
1128.97224,0.26209
1127.48245,0.25333
1125.99266,0.25179
1124.50288,0.26513
1123.01309,0.26676
1121.52330,0.26841
1120.03351,0.22933
1118.54372,0.24853
1117.05393,0.26822
1115.56415,0.26446
1114.07436,0.24945
1112.58457,0.25100
1111.09478,0.25258
1109.60499,0.25203
1108.11520,0.25293
1106.62542,0.24428
1105.13563,0.25003
1103.64584,0.24430
1102.15605,0.23883
1100.66626,0.23590
1099.17647,0.23300
1097.68668,0.21658
1096.19690,0.22583
1094.70711,0.22480
1093.21732,0.23027
1091.72753,0.21994
1090.23774,0.21550
1088.74795,0.21109
1087.25817,0.20203
1085.76838,0.18029
1084.27859,0.21443
1082.78880,0.18291
1081.29901,0.17251
1079.80922,0.19449
1078.31943,0.20811
1076.82965,0.22175
1075.33986,0.21216
1073.85007,0.21938
1072.36028,0.23214
1070.87049,0.23916
1069.38070,0.24669
1067.89092,0.25772
1066.40113,0.26878
1064.91134,0.36435
1063.42155,0.45970
1061.93176,0.55939
1060.44197,0.64353
1058.95219,0.75717
1057.46240,0.80445
1055.97261,0.85174
1054.48282,0.92591
1052.99303,1.00489
1051.50324,0.98731
1050.01345,0.97214
1048.52367,1.00159
1047.03388,1.00061
1045.54409,0.99966
1044.05430,0.93114
1042.56451,0.81255
1041.07472,0.78459
1039.58494,0.73916
1038.09515,0.67745
1036.60536,0.64776
1035.11557,0.61810
1033.62578,0.50684
1032.13599,0.44811
1030.64620,0.40809
1029.15642,0.34581
1027.66663,0.31423
1026.17684,0.28267
1024.68705,0.23268
1023.19726,0.20837
1021.70747,0.17329
1020.21769,0.16748
1018.72790,0.14899
1017.23811,0.14455
1015.74832,0.14013
1014.25853,0.12770
1012.76874,0.13447
1011.27896,0.13049
1009.78917,0.13563
1008.29938,0.11875
1006.80959,0.09602
1005.31980,0.07331
1003.83001,0.02630
1002.34022,0.01958
1000.85044,0.02847
999.36065,0.05607
997.87086,0.05506
996.38107,0.05407
994.89128,0.06257
993.40149,0.08836
991.91171,0.08612
990.42192,0.10884
988.93213,0.10378
987.44234,0.10988
985.95255,0.11602
984.46276,0.11966
982.97297,0.10990
981.48319,0.09944
979.99340,0.08614
978.50361,0.06770
977.01382,0.04929
975.52403,0.03222
974.03424,0.04178
972.54446,0.03195
971.05467,0.00825
969.56488,0.00566
968.07509,0.00992
966.58530,0.01420
965.09551,0.01096
963.60573,0.00559
962.11594,0.01810
960.62615,0.00858
959.13636,0.00808
957.64657,0.00760
956.15678,0.00631
954.66699,0.02014
953.17721,0.03327
951.68742,0.04164
950.19763,0.05387
948.70784,0.06612
947.21805,0.07336
945.72826,0.06193
944.23848,0.09918
942.74869,0.09978
941.25890,0.14139
939.76911,0.14516
938.27932,0.14895
936.78953,0.17242
935.29974,0.18249
933.80996,0.21847
932.32017,0.23123
930.83038,0.23586
929.34059,0.24051
927.85080,0.24160
926.36101,0.26835
924.87123,0.28866
923.38144,0.34183
921.89165,0.38424
920.40186,0.42667
918.91207,0.52282
917.42228,0.63601
915.93250,0.76696
914.44271,0.98518
912.95292,1.09760
911.46313,1.21005
909.97334,1.46022
908.48355,1.70227
906.99376,1.90311
905.50398,1.97839
904.01419,1.97327
902.52440,1.96817
901.03461,1.98000
899.54482,2.00000
898.05503,1.87957
896.56525,1.69229
895.07546,1.56088
893.58567,1.42949
892.09588,1.16031
890.60609,0.91416
889.11630,0.69129
887.62651,0.53243
886.13673,0.45354
884.64694,0.37467
883.15715,0.26407
881.66736,0.19951
880.17757,0.13785
878.68778,0.11877
877.19800,0.09970
875.70821,0.05777
874.21842,0.04415
872.72863,0.03223
871.23884,0.01218
869.74905,0.00942
868.25927,0.00668
866.76948,0.01643
865.27969,0.00559
863.78990,0.04893
862.30011,0.04748
860.81032,0.06235
859.32053,0.07724
857.83075,0.06699
856.34096,0.08097
854.85117,0.09354
853.36138,0.11405
851.87159,0.11288
850.38180,0.11174
848.89202,0.09828
847.40223,0.13183
845.91244,0.19272
844.42265,0.20258
842.93286,0.21247
841.44307,0.21136
839.95329,0.22297
838.46350,0.24300
836.97371,0.25130
835.48392,0.23782
833.99413,0.22436
832.50434,0.23922
831.01455,0.22125
829.52477,0.22057
828.03498,0.19211
826.54519,0.17039
825.05540,0.14869
823.56561,0.14307
822.07582,0.12429
820.58604,0.11585
819.09625,0.11546
817.60646,0.11509
816.11667,0.12877
814.62688,0.12042
813.13709,0.09125
811.64730,0.09709
810.15752,0.09924
808.66773,0.10142
807.17794,0.11620
805.68815,0.12358
804.19836,0.12523
802.70857,0.13001
801.21879,0.13483
799.72900,0.12792
798.23921,0.10474
796.74942,0.09453
795.25963,0.09872
793.76984,0.10293
792.28006,0.10621
790.79027,0.15314
789.30048,0.15791
787.81069,0.17469
786.32090,0.17615
784.83111,0.17763
783.34132,0.22085
781.85154,0.26936
780.36175,0.31310
778.87196,0.34273
777.38217,0.37238
775.89238,0.37664
774.40259,0.35817
772.91281,0.37638
771.42302,0.36466
769.93323,0.35297
768.44344,0.30055
766.95365,0.23905
765.46386,0.23126
763.97407,0.16645
762.48429,0.15512
760.99450,0.14381
759.50471,0.11430
758.01492,0.10688
756.52513,0.08150
755.03534,0.07496
753.54556,0.06844
752.05577,0.08269
750.56598,0.06340
749.07619,0.04221
747.58640,0.03699
746.09661,0.03180
744.60683,0.02555
743.11704,0.04281
741.62725,0.02175
740.13746,0.01366
738.64767,0.00559
737.15788,0.01152
735.66809,0.01580
734.17831,0.01171
732.68852,0.01448
731.19873,0.01727
729.70894,0.02116
728.21915,0.02340
726.72936,0.02567
725.23958,0.01262
723.74979,0.01589
722.26000,0.01918
720.77021,0.01207
719.28042,0.01457
717.79063,0.00559
716.30084,0.00985
714.81106,0.01413
713.32127,0.02168
711.83148,0.03763
710.34169,0.03612
708.85190,0.03343
707.36211,0.03076
705.87233,0.04514
704.38254,0.04372
702.89275,0.05575
701.40296,0.04971
699.91317,0.04369
698.42338,0.05842
696.93360,0.07007
695.44381,0.09037
693.95402,0.10039
692.46423,0.11043
690.97444,0.11905
689.48465,0.14640
687.99486,0.16347
686.50508,0.17217
685.01529,0.18089
683.52550,0.21313
682.03571,0.24443
680.54592,0.27192
679.05613,0.26624
677.56635,0.26059
676.07656,0.23734
674.58677,0.22993
673.09698,0.22806
671.60719,0.21292
670.11740,0.19780
668.62761,0.16676
667.13783,0.14677
665.64804,0.13304
664.15825,0.11933
662.66846,0.10709
661.17867,0.07114
659.68888,0.06829
658.19910,0.05600
656.70931,0.04373
655.21952,0.04695
653.72973,0.03868
652.23994,0.03883
650.75015,0.03649
649.26037,0.03417
647.77058,0.04374
646.28079,0.03464
644.79100,0.03131
643.30121,0.03664
641.81142,0.04199
640.32163,0.02364
638.83185,0.03599
637.34206,0.03255
635.85227,0.02721
634.36248,0.02190
632.87269,0.00559
631.38290,0.02026
629.89312,0.01243
628.40333,0.02009
626.91354,0.02777
625.42375,0.00611
623.93396,0.00269
622.44417,0.00349
620.95438,0.00431
619.46460,0.02062
617.97481,0.01898
616.48502,0.05571
614.99523,0.06310
613.50544,0.07052
612.01565,0.10612
610.52587,0.14127
609.03608,0.17597
607.54629,0.20541
606.05650,0.23488
604.56671,0.25863
603.07692,0.32146
601.58714,0.34226
600.09735,0.36307
598.60756,0.38835
597.11777,0.40718
595.62798,0.39607
594.13819,0.37804
592.64840,0.36003
591.15862,0.36218
589.66883,0.31114
588.17904,0.23927
586.68925,0.20566
585.19946,0.17207
583.70967,0.13024
582.21989,0.11407
580.73010,0.09782
579.24031,0.08158
577.75052,0.06477
576.26073,0.06381
574.77094,0.04897
573.28115,0.04685
571.79137,0.04476
570.30158,0.03790
568.81179,0.06055
567.32200,0.06596
565.83221,0.07139
564.34242,0.08333
562.85264,0.11470
561.36285,0.12189
559.87306,0.12430
558.38327,0.12675
556.89348,0.13089
555.40369,0.16957
553.91391,0.16178
552.42412,0.15401
550.93433,0.16856
549.44454,0.17882
547.95475,0.19701
546.46496,0.19953
544.97517,0.20207
543.48539,0.22680
541.99560,0.25660
540.50581,0.26700
539.01602,0.27743
537.52623,0.30873
536.03644,0.36355
534.54666,0.41408
533.05687,0.42448
531.56708,0.43491
530.07729,0.48263
528.58750,0.53422
527.09771,0.57025
525.60792,0.60630
524.11814,0.67593
522.62835,0.70868
521.13856,0.79753
519.64877,0.81930
518.15898,0.84109
516.66919,0.83774
515.17941,0.87229
513.68962,0.86803
512.19983,0.86379
510.71004,0.78455
509.22025,0.75184
507.73046,0.71772
506.24068,0.67379
504.75089,0.62989
503.26110,0.49564
501.77131,0.39163
500.28152,0.34000
498.79173,0.28841
497.30194,0.22066
495.81216,0.17762
494.32237,0.16924
492.83258,0.16088
491.34279,0.11576
489.85300,0.07497
488.36321,0.08335
486.87343,0.09342
485.38364,0.10352
483.89385,0.07842
482.40406,0.09456
480.91427,0.08867
479.42448,0.08281
477.93469,0.10430
476.44491,0.15482
474.95512,0.16305
473.46533,0.17131
471.97554,0.18474
470.48575,0.21666
468.99596,0.21217
467.50618,0.19380
466.01639,0.17545
464.52660,0.12237
463.03681,0.08251
461.54702,0.06879
460.05723,0.05509
458.56745,0.04166
457.07766,0.02370
455.58787,0.01463
454.09808,0.00559
452.60829,0.01786
451.11850,0.01506
449.62871,0.01779
448.13893,0.02055
446.64914,0.02621
445.15935,0.00505
443.66956,0.00692
442.17977,0.00726
440.68998,0.00762
439.20020,0.04576
437.71041,0.04581
436.22062,0.03965
434.73083,0.03352
433.24104,0.03988
431.75125,0.05105
430.26146,0.05590
428.77168,0.06077
427.28189,0.04973
425.79210,0.03391
424.30231,0.04221
422.81252,0.05054
421.32273,0.04774
419.83295,0.04665
418.34316,0.04462
416.85337,0.04261
415.36358,0.04207
413.87379,0.03364
412.38400,0.01960
410.89422,0.00559
409.40443,0.02151
407.91464,0.02883
406.42485,0.03042
404.93506,0.02723
403.44527,0.02408
401.95548,0.02886
400.46570,0.01041
398.97591,0.01535
397.48612,0.02032
395.99633,0.00626
394.50654,0.01020
393.01675,0.02303
391.52697,0.03589
390.03718,0.03271
388.54739,0.01925
387.05760,0.01241
385.56781,0.00559
384.07802,0.02060
382.58824,0.01933
381.09845,0.02001
379.60866,0.02071
378.11887,0.01999
376.62908,0.00324
375.13929,0.00629
373.64950,0.00937
372.15972,0.01474
370.66993,0.03548
369.18014,0.02101
367.69035,0.00656
366.20056,0.00705
364.71077,0.02434
363.22099,0.02704
361.73120,0.02976
360.24141,0.02939
358.75162,0.04294
357.26183,0.04405
355.77204,0.04519
354.28225,0.00849
352.79247,0.03915
351.30268,0.05499
349.81289,0.07084
348.32310,0.09967
346.83331,0.06500
345.34352,0.04773
343.85374,0.03049
342.36395,0.02969
340.87416,0.03538
339.38437,0.03870
337.89458,0.04205
336.40479,0.03440
334.91501,0.03492
333.42522,0.02024
331.93543,0.00559
330.44564,0.03085
328.95585,0.03312
327.46606,0.02380
325.97627,0.01449
324.48649,0.00915
322.99670,0.02732
321.50691,0.05235
320.01712,0.07740
318.52733,0.10668
317.03754,0.08923
315.54776,0.09003
314.05797,0.09085
312.56818,0.04304
311.07839,0.02018
309.58860,0.04061
308.09881,0.06106
306.60902,0.06512
305.11924,0.03181
303.62945,0.01902
302.13966,0.00625
300.64987,0.05013
299.16008,0.00559
