1778.52000,0.01573
1777.03021,0.00607
1775.54042,0.01816
1774.05063,0.01570
1772.56085,0.02349
1771.07106,0.01521
1769.58127,0.01998
1768.09148,0.00971
1766.60169,0.00329
1765.11190,0.00763
1763.62212,0.01174
1762.13233,0.00949
1760.64254,0.00828
1759.15275,0.00863
1757.66296,0.01463
1756.17317,0.01452
1754.68339,0.00831
1753.19360,0.01004
1751.70381,0.00004
1750.21402,0.00182
1748.72423,0.00950
1747.23444,0.00546
1745.74465,0.00272
1744.25487,0.00230
1742.76508,0.00817
1741.27529,0.01662
1739.78550,0.01155
1738.29571,0.01954
1736.80592,0.02065
1735.31614,0.00748
1733.82635,0.00763
1732.33656,0.00984
1730.84677,0.00645
1729.35698,0.00437
1727.86719,0.02123
1726.37740,0.00846
1724.88762,0.00927
1723.39783,0.01955
1721.90804,0.00738
1720.41825,0.00647
1718.92846,0.00329
1717.43867,0.01253
1715.94889,0.01616
1714.45910,0.01778
1712.96931,0.01228
1711.47952,0.01982
1709.98973,0.01896
1708.49994,0.02605
1707.01016,0.02243
1705.52037,0.01884
1704.03058,0.03852
1702.54079,0.00329
1701.05100,0.02490
1699.56121,0.02278
1698.07142,0.03090
1696.58164,0.04109
1695.09185,0.04390
1693.60206,0.04596
1692.11227,0.05291
1690.62248,0.05425
1689.13269,0.04771
1687.64291,0.06214
1686.15312,0.07250
1684.66333,0.06654
1683.17354,0.06572
1681.68375,0.05036
1680.19396,0.07411
1678.70417,0.06953
1677.21439,0.07673
1675.72460,0.07986
1674.23481,0.09222
1672.74502,0.09489
1671.25523,0.08175
1669.76544,0.09776
1668.27566,0.10843
1666.78587,0.10916
1665.29608,0.09535
1663.80629,0.11197
1662.31650,0.12096
1660.82671,0.10978
1659.33693,0.12188
1657.84714,0.14499
1656.35735,0.13006
1654.86756,0.11336
1653.37777,0.10129
1651.88798,0.10636
1650.39819,0.12372
1648.90841,0.10431
1647.41862,0.10639
1645.92883,0.09802
1644.43904,0.08968
1642.94925,0.08570
1641.45946,0.09172
1639.96968,0.08422
1638.47989,0.10485
1636.99010,0.10480
1635.50031,0.08946
1634.01052,0.08742
1632.52073,0.09589
1631.03094,0.10617
1629.54116,0.10830
1628.05137,0.10125
1626.56158,0.11135
1625.07179,0.12837
1623.58200,0.11451
1622.09221,0.10680
1620.60243,0.10524
1619.11264,0.13182
1617.62285,0.13134
1616.13306,0.10431
1614.64327,0.10491
1613.15348,0.11549
1611.66370,0.11409
1610.17391,0.10709
1608.68412,0.10472
1607.19433,0.10288
1605.70454,0.10286
1604.21475,0.10491
1602.72496,0.10698
1601.23518,0.09681
1599.74539,0.11529
1598.25560,0.09444
1596.76581,0.11577
1595.27602,0.10443
1593.78623,0.10563
1592.29645,0.09715
1590.80666,0.09431
1589.31687,0.09738
1587.82708,0.09970
1586.33729,0.08366
1584.84750,0.08246
1583.35771,0.08613
1581.86793,0.09214
1580.37814,0.09433
1578.88835,0.07969
1577.39856,0.07120
1575.90877,0.07807
1574.41898,0.08011
1572.92920,0.06992
1571.43941,0.06894
1569.94962,0.06378
1568.45983,0.05864
1566.97004,0.05569
1565.48025,0.04205
1563.99047,0.03736
1562.50068,0.04114
1561.01089,0.05235
1559.52110,0.05567
1558.03131,0.03984
1556.54152,0.02813
1555.05173,0.05273
1553.56195,0.04848
1552.07216,0.01973
1550.58237,0.03137
1549.09258,0.02439
1547.60279,0.03378
1546.11300,0.00794
1544.62322,0.02480
1543.13343,0.00719
1541.64364,0.00109
1540.15385,0.00917
1538.66406,0.01727
1537.17427,0.00329
1535.68448,0.00960
1534.19470,0.01669
1532.70491,0.01615
1531.21512,0.01461
1529.72533,0.02229
1528.23554,0.02183
1526.74575,0.01040
1525.25597,0.02020
1523.76618,0.03105
1522.27639,0.04244
1520.78660,0.02242
1519.29681,0.03386
1517.80702,0.02846
1516.31724,0.01593
1514.82745,0.02182
1513.33766,0.02774
1511.84787,0.03368
1510.35808,0.03454
1508.86829,0.03414
1507.37850,0.03889
1505.88872,0.03956
1504.39893,0.04793
1502.90914,0.03946
1501.41935,0.04660
1499.92956,0.06987
1498.43977,0.05406
1496.94999,0.05617
1495.46020,0.06673
1493.97041,0.09035
1492.48062,0.09254
1490.99083,0.10956
1489.50104,0.11001
1488.01125,0.11827
1486.52147,0.12656
1485.03168,0.14854
1483.54189,0.17259
1482.05210,0.18236
1480.56231,0.20314
1479.07252,0.20836
1477.58274,0.26445
1476.09295,0.27151
1474.60316,0.26378
1473.11337,0.26987
1471.62358,0.30332
1470.13379,0.28391
1468.64401,0.30259
1467.15422,0.30443
1465.66443,0.32572
1464.17464,0.34704
1462.68485,0.39112
1461.19506,0.43471
1459.70527,0.46146
1458.21549,0.48594
1456.72570,0.57816
1455.23591,0.61368
1453.74612,0.64896
1452.25633,0.72158
1450.76654,0.76509
1449.27676,0.75447
1447.78697,0.74106
1446.29718,0.72792
1444.80739,0.71367
1443.31760,0.69944
1441.82781,0.62455
1440.33802,0.59415
1438.84824,0.53592
1437.35845,0.47925
1435.86866,0.46859
1434.37887,0.48709
1432.88908,0.52733
1431.39929,0.57577
1429.90951,0.65899
1428.41972,0.71055
1426.92993,0.76596
1425.44014,0.82140
1423.95035,0.83050
1422.46056,0.83961
1420.97078,0.89615
1419.48099,0.93509
1417.99120,0.95080
1416.50141,0.91977
1415.01162,0.91663
1413.52183,0.88285
1412.03204,0.79518
1410.54226,0.73666
1409.05247,0.67000
1407.56268,0.62277
1406.07289,0.55386
1404.58310,0.51691
1403.09331,0.47998
1401.60353,0.42085
1400.11374,0.39190
1398.62395,0.35198
1397.13416,0.29880
1395.64437,0.24999
1394.15458,0.22931
1392.66479,0.18694
1391.17501,0.15073
1389.68522,0.10585
1388.19543,0.07659
1386.70564,0.07137
1385.21585,0.06617
1383.72606,0.04413
1382.23628,0.01011
1380.74649,0.00806
1379.25670,0.00782
1377.76691,0.00862
1376.27712,0.00000
1374.78733,0.00112
1373.29755,0.01454
1371.80776,0.02619
1370.31797,0.01001
1368.82818,0.00664
1367.33839,0.00329
1365.84860,0.00663
1364.35881,0.02685
1362.86903,0.03356
1361.37924,0.03672
1359.88945,0.07286
1358.39966,0.08015
1356.90987,0.12273
1355.42008,0.16662
1353.93030,0.23045
1352.44051,0.25216
1350.95072,0.27389
1349.46093,0.35441
1347.97114,0.43546
1346.48135,0.53060
1344.99156,0.59024
1343.50178,0.63432
1342.01199,0.69555
1340.52220,0.73943
1339.03241,0.77490
1337.54262,0.79942
1336.05283,0.84337
1334.56305,0.88735
1333.07326,0.92165
1331.58347,0.92301
1330.09368,0.88684
1328.60389,0.86985
1327.11410,0.86772
1325.62432,0.86713
1324.13453,0.86990
1322.64474,0.82491
1321.15495,0.79554
1319.66516,0.75430
1318.17537,0.71310
1316.68558,0.65799
1315.19580,0.62028
1313.70601,0.56625
1312.21622,0.49717
1310.72643,0.47180
1309.23664,0.44467
1307.74685,0.41680
1306.25707,0.38563
1304.76728,0.35794
1303.27749,0.33027
1301.78770,0.30991
1300.29791,0.28344
1298.80812,0.20922
1297.31834,0.19379
1295.82855,0.16944
1294.33876,0.13157
1292.84897,0.10395
1291.35918,0.07713
1289.86939,0.08239
1288.37960,0.08768
1286.88982,0.07881
1285.40003,0.06818
1283.91024,0.05323
1282.42045,0.05466
1280.93066,0.04973
1279.44087,0.05760
1277.95109,0.05297
1276.46130,0.04453
1274.97151,0.04366
1273.48172,0.04282
1271.99193,0.03241
1270.50214,0.02919
1269.01235,0.03033
1267.52257,0.03636
1266.03278,0.03781
1264.54299,0.02932
1263.05320,0.01882
1261.56341,0.01498
1260.07362,0.01116
1258.58384,0.01734
1257.09405,0.01409
1255.60426,0.01418
1254.11447,0.01405
1252.62468,0.02365
1251.13489,0.00747
1249.64511,0.00230
1248.15532,0.00431
1246.66553,0.00379
1245.17574,0.00329
1243.68595,0.01644
1242.19616,0.03549
1240.70637,0.03438
1239.21659,0.05066
1237.72680,0.02533
1236.23701,0.02149
1234.74722,0.00847
1233.25743,0.00940
1231.76764,0.01036
1230.27786,0.00329
1228.78807,0.02556
1227.29828,0.01720
1225.80849,0.01346
1224.31870,0.01127
1222.82891,0.01244
1221.33912,0.02180
1219.84934,0.02928
1218.35955,0.03678
1216.86976,0.02553
1215.37997,0.03601
1213.89018,0.05547
1212.40039,0.08415
1210.91061,0.06789
1209.42082,0.07643
1207.93103,0.06865
1206.44124,0.06090
1204.95145,0.07182
1203.46166,0.04929
1201.97188,0.06103
1200.48209,0.05568
1198.99230,0.06976
1197.50251,0.04632
1196.01272,0.03389
1194.52293,0.03285
1193.03314,0.03183
1191.54336,0.03736
1190.05357,0.03218
1188.56378,0.04926
1187.07399,0.02574
1185.58420,0.01629
1184.09441,0.00329
1182.60463,0.00869
1181.11484,0.01412
1179.62505,0.02570
1178.13526,0.01891
1176.64547,0.03821
1175.15568,0.02457
1173.66589,0.01837
1172.17611,0.02114
1170.68632,0.01358
1169.19653,0.00605
1167.70674,0.00506
1166.21695,0.02070
1164.72716,0.01516
1163.23738,0.03367
1161.74759,0.04913
1160.25780,0.04392
1158.76801,0.04858
1157.27822,0.05326
1155.78843,0.05962
1154.29865,0.07444
1152.80886,0.07728
1151.31907,0.10314
1149.82928,0.09428
1148.33949,0.10971
1146.84970,0.11112
1145.35991,0.11255
1143.87013,0.11835
1142.38034,0.12878
1140.89055,0.14613
1139.40076,0.14766
1137.91097,0.18857
1136.42118,0.19398
1134.93140,0.21067
1133.44161,0.22737
1131.95182,0.21549
1130.46203,0.24886
1128.97224,0.26258
1127.48245,0.27019
1125.99266,0.26607
1124.50288,0.28600
1123.01309,0.27861
1121.52330,0.27125
1120.03351,0.24629
1118.54372,0.23131
1117.05393,0.26337
1115.56415,0.27962
1114.07436,0.26804
1112.58457,0.25904
1111.09478,0.25006
1109.60499,0.25849
1108.11520,0.27818
1106.62542,0.24425
1105.13563,0.23997
1103.64584,0.23470
1102.15605,0.23431
1100.66626,0.22322
1099.17647,0.21215
1097.68668,0.21055
1096.19690,0.22100
1094.70711,0.21715
1093.21732,0.22279
1091.72753,0.22207
1090.23774,0.20910
1088.74795,0.19617
1087.25817,0.19424
1085.76838,0.17573
1084.27859,0.17334
1082.78880,0.16868
1081.29901,0.18270
1079.80922,0.19214
1078.31943,0.20416
1076.82965,0.21621
1075.33986,0.22292
1073.85007,0.22019
1072.36028,0.23947
1070.87049,0.23527
1069.38070,0.26226
1067.89092,0.26028
1066.40113,0.25832
1064.91134,0.33240
1063.42155,0.41417
1061.93176,0.54298
1060.44197,0.62761
1058.95219,0.69898
1057.46240,0.77843
1055.97261,0.85790
1054.48282,0.91223
1052.99303,1.00567
1051.50324,1.00307
1050.01345,0.99232
1048.52367,1.03321
1047.03388,1.03299
1045.54409,1.03279
1044.05430,0.96619
1042.56451,0.85720
1041.07472,0.78528
1039.58494,0.73281
1038.09515,0.66810
1036.60536,0.62423
1035.11557,0.58039
1033.62578,0.49685
1032.13599,0.46571
1030.64620,0.38732
1029.15642,0.35164
1027.66663,0.32645
1026.17684,0.30128
1024.68705,0.23271
1023.19726,0.21807
1021.70747,0.18838
1020.21769,0.16230
1018.72790,0.16716
1017.23811,0.16795
1015.74832,0.16877
1014.25853,0.16195
1012.76874,0.17278
1011.27896,0.18619
1009.78917,0.19325
1008.29938,0.16379
1006.80959,0.13435
1005.31980,0.10494
1003.83001,0.04183
1002.34022,0.01375
1000.85044,0.04804
999.36065,0.04300
997.87086,0.04323
996.38107,0.04348
994.89128,0.05028
993.40149,0.07089
991.91171,0.08259
990.42192,0.11296
988.93213,0.09456
987.44234,0.10110
985.95255,0.10766
984.46276,0.10288
982.97297,0.10195
981.48319,0.08726
979.99340,0.07054
978.50361,0.06599
977.01382,0.06146
975.52403,0.04865
974.03424,0.04787
972.54446,0.01902
971.05467,0.00808
969.56488,0.00329
968.07509,0.00403
966.58530,0.00479
965.09551,0.01286
963.60573,0.02683
962.11594,0.02191
960.62615,0.00400
959.13636,0.00731
957.64657,0.01065
956.15678,0.03267
954.66699,0.01638
953.17721,0.01980
951.68742,0.04981
950.19763,0.05647
948.70784,0.06316
947.21805,0.09171
945.72826,0.09091
944.23848,0.11057
942.74869,0.11774
941.25890,0.14180
939.76911,0.15196
938.27932,0.16214
936.78953,0.16328
935.29974,0.18999
933.80996,0.20600
932.32017,0.23864
930.83038,0.24537
929.34059,0.25213
927.85080,0.24908
926.36101,0.26777
924.87123,0.28699
923.38144,0.30905
921.89165,0.33906
920.40186,0.36909
918.91207,0.46047
917.42228,0.59760
915.93250,0.73809
914.44271,0.94809
912.95292,1.05835
911.46313,1.16863
909.97334,1.38485
908.48355,1.61999
906.99376,1.86436
905.50398,1.93910
904.01419,1.96954
902.52440,2.00000
901.03461,1.99101
899.54482,1.95088
898.05503,1.81343
896.56525,1.68264
895.07546,1.54997
893.58567,1.41732
892.09588,1.14557
890.60609,0.89480
889.11630,0.66476
887.62651,0.51624
886.13673,0.45053
884.64694,0.38484
883.15715,0.29184
881.66736,0.20756
880.17757,0.15344
878.68778,0.12631
877.19800,0.09921
875.70821,0.06203
874.21842,0.05248
872.72863,0.03886
871.23884,0.02323
869.74905,0.01835
868.25927,0.01349
866.76948,0.02604
865.27969,0.03656
863.78990,0.04149
862.30011,0.04466
860.81032,0.05769
859.32053,0.07074
857.83075,0.08267
856.34096,0.07930
854.85117,0.11223
853.36138,0.11325
851.87159,0.11864
850.38180,0.12405
848.89202,0.11212
847.40223,0.15412
845.91244,0.18081
844.42265,0.18045
842.93286,0.18011
841.44307,0.21327
839.95329,0.23419
838.46350,0.24032
836.97371,0.23344
835.48392,0.23846
833.99413,0.24352
832.50434,0.23927
831.01455,0.24041
829.52477,0.21577
828.03498,0.18682
826.54519,0.16312
825.05540,0.13946
823.56561,0.13383
822.07582,0.09884
820.58604,0.10092
819.09625,0.10610
817.60646,0.11130
816.11667,0.11244
814.62688,0.11310
813.13709,0.10560
811.64730,0.11065
810.15752,0.10703
808.66773,0.10345
807.17794,0.10806
805.68815,0.10759
804.19836,0.11710
802.70857,0.12562
801.21879,0.13417
799.72900,0.13201
798.23921,0.11403
796.74942,0.09200
795.25963,0.09068
793.76984,0.08939
792.28006,0.12133
790.79027,0.13721
789.30048,0.16282
787.81069,0.18641
786.32090,0.18959
784.83111,0.19279
783.34132,0.22873
781.85154,0.26213
780.36175,0.30629
778.87196,0.32760
777.38217,0.34894
775.89238,0.36099
774.40259,0.38634
772.91281,0.38208
771.42302,0.38257
769.93323,0.38309
768.44344,0.33215
766.95365,0.28506
765.46386,0.24030
763.97407,0.20349
762.48429,0.19034
760.99450,0.17721
759.50471,0.12821
758.01492,0.11756
756.52513,0.08930
755.03534,0.08036
753.54556,0.07145
752.05577,0.07521
750.56598,0.07133
749.07619,0.07105
747.58640,0.05981
746.09661,0.04859
744.60683,0.05043
743.11704,0.04157
741.62725,0.02021
740.13746,0.01433
738.64767,0.00848
737.15788,0.00329
735.66809,0.00900
734.17831,0.00757
732.68852,0.00745
731.19873,0.00736
729.70894,0.01725
728.21915,0.03254
726.72936,0.00876
725.23958,0.01055
723.74979,0.01492
722.26000,0.01932
720.77021,0.02707
719.28042,0.01772
717.79063,0.00329
716.30084,0.00314
714.81106,0.00301
713.32127,0.04021
711.83148,0.04243
710.34169,0.05004
708.85190,0.04299
707.36211,0.03596
705.87233,0.04748
704.38254,0.06260
702.89275,0.05373
701.40296,0.05792
699.91317,0.06213
698.42338,0.07326
696.93360,0.07676
695.44381,0.09203
693.95402,0.09762
692.46423,0.10324
690.97444,0.11603
689.48465,0.15364
687.99486,0.17772
686.50508,0.19328
685.01529,0.20886
683.52550,0.23251
682.03571,0.25082
680.54592,0.27018
679.05613,0.26682
677.56635,0.26349
676.07656,0.26938
674.58677,0.21066
673.09698,0.22631
671.60719,0.20916
670.11740,0.19203
668.62761,0.17480
667.13783,0.16245
665.64804,0.15204
664.15825,0.14165
662.66846,0.12223
661.17867,0.10563
659.68888,0.09468
658.19910,0.07354
656.70931,0.05242
655.21952,0.05842
653.72973,0.04348
652.23994,0.06690
650.75015,0.06849
649.26037,0.07011
647.77058,0.05707
646.28079,0.03229
644.79100,0.03846
643.30121,0.03635
641.81142,0.03427
640.32163,0.03131
638.83185,0.03630
637.34206,0.03161
635.85227,0.03384
634.36248,0.03610
632.87269,0.02510
631.38290,0.02740
629.89312,0.02284
628.40333,0.02928
626.91354,0.03575
625.42375,0.03228
623.93396,0.00329
622.44417,0.02092
620.95438,0.03857
619.46460,0.02878
617.97481,0.02949
616.48502,0.07340
614.99523,0.08694
613.50544,0.10050
612.01565,0.11741
610.52587,0.14814
609.03608,0.17404
607.54629,0.19971
606.05650,0.22541
604.56671,0.26953
603.07692,0.32568
601.58714,0.34902
600.09735,0.37239
598.60756,0.43578
597.11777,0.43301
595.62798,0.43844
594.13819,0.42857
592.64840,0.41872
591.15862,0.37620
589.66883,0.33089
588.17904,0.26516
586.68925,0.23089
585.19946,0.19664
583.70967,0.15067
582.21989,0.11800
580.73010,0.10452
579.24031,0.09107
577.75052,0.07254
576.26073,0.07038
574.77094,0.06058
573.28115,0.06473
571.79137,0.06891
570.30158,0.05816
568.81179,0.08832
567.32200,0.08823
565.83221,0.08816
564.34242,0.13296
562.85264,0.12490
561.36285,0.15621
559.87306,0.15037
558.38327,0.14455
556.89348,0.16852
555.40369,0.18230
553.91391,0.18653
552.42412,0.19078
550.93433,0.19339
549.44454,0.22413
547.95475,0.21862
546.46496,0.22425
544.97517,0.22990
543.48539,0.24235
541.99560,0.27424
540.50581,0.29019
539.01602,0.30617
537.52623,0.35065
536.03644,0.39185
534.54666,0.39269
533.05687,0.42870
531.56708,0.46473
530.07729,0.54741
528.58750,0.58362
527.09771,0.60682
525.60792,0.63005
524.11814,0.71794
522.62835,0.71592
521.13856,0.80285
519.64877,0.81544
518.15898,0.82807
516.66919,0.88364
515.17941,0.87919
513.68962,0.87413
512.19983,0.86910
510.71004,0.82462
509.22025,0.77249
507.73046,0.71145
506.24068,0.67433
504.75089,0.63723
503.26110,0.53283
501.77131,0.41900
500.28152,0.37712
498.79173,0.33527
497.30194,0.22790
495.81216,0.18878
494.32237,0.17013
492.83258,0.15150
491.34279,0.13008
489.85300,0.10537
488.36321,0.06510
486.87343,0.06458
485.38364,0.06409
483.89385,0.09978
482.40406,0.11761
480.91427,0.11477
479.42448,0.11195
477.93469,0.14058
476.44491,0.17307
474.95512,0.17774
473.46533,0.18244
471.97554,0.18281
470.48575,0.23227
468.99596,0.22528
467.50618,0.19776
466.01639,0.17026
464.52660,0.13831
463.03681,0.08262
461.54702,0.06606
460.05723,0.04952
458.56745,0.04629
457.07766,0.04717
455.58787,0.03492
454.09808,0.02269
452.60829,0.01241
451.11850,0.02464
449.62871,0.02782
448.13893,0.03102
446.64914,0.05048
445.15935,0.01860
443.66956,0.00438
442.17977,0.00782
440.68998,0.01128
439.20020,0.02371
437.71041,0.05405
436.22062,0.04711
434.73083,0.04019
433.24104,0.02973
431.75125,0.02874
430.26146,0.03429
428.77168,0.03987
427.28189,0.04279
425.79210,0.03015
424.30231,0.02916
422.81252,0.02820
421.32273,0.03965
419.83295,0.04270
418.34316,0.04705
416.85337,0.05143
415.36358,0.04433
413.87379,0.02397
412.38400,0.03315
410.89422,0.04235
409.40443,0.01236
407.91464,0.03017
406.42485,0.04188
404.93506,0.03406
403.44527,0.02628
401.95548,0.03014
400.46570,0.02917
398.97591,0.01622
397.48612,0.00329
395.99633,0.01660
394.50654,0.01358
393.01675,0.01901
391.52697,0.02447
390.03718,0.03558
388.54739,0.03291
387.05760,0.02005
385.56781,0.00722
384.07802,0.00982
382.58824,0.01040
381.09845,0.01880
379.60866,0.02722
378.11887,0.01434
376.62908,0.01860
375.13929,0.00985
373.64950,0.00113
372.15972,0.01226
370.66993,0.02417
369.18014,0.02679
367.69035,0.02943
366.20056,0.03222
364.71077,0.04322
363.22099,0.03175
361.73120,0.02031
360.24141,0.02193
358.75162,0.03022
357.26183,0.02422
355.77204,0.01825
354.28225,0.02329
352.79247,0.04087
351.30268,0.04813
349.81289,0.05542
348.32310,0.04651
346.83331,0.05806
345.34352,0.03732
343.85374,0.01660
342.36395,0.04918
340.87416,0.01562
339.38437,0.01593
337.89458,0.01626
336.40479,0.01241
334.91501,0.02799
333.42522,0.01563
331.93543,0.00329
330.44564,0.00636
328.95585,0.00562
327.46606,0.01206
325.97627,0.01853
324.48649,0.01046
322.99670,0.04150
321.50691,0.04843
320.01712,0.05538
318.52733,0.08113
317.03754,0.07881
315.54776,0.06769
314.05797,0.05660
312.56818,0.05052
311.07839,0.06874
309.58860,0.05440
308.09881,0.04009
306.60902,0.04740
305.11924,0.02509
303.62945,0.01418
302.13966,0.00329
300.64987,0.02397
299.16008,0.00329
