1778.52000,0.01610
1777.03021,0.02389
1775.54042,0.00665
1774.05063,0.02304
1772.56085,0.01823
1771.07106,0.01876
1769.58127,0.01694
1768.09148,0.00071
1766.60169,0.01015
1765.11190,0.01815
1763.62212,0.01614
1762.13233,0.01563
1760.64254,0.01308
1759.15275,0.01115
1757.66296,0.01425
1756.17317,0.01149
1754.68339,0.01169
1753.19360,0.01399
1751.70381,0.01719
1750.21402,0.00273
1748.72423,0.00451
1747.23444,0.00071
1745.74465,0.00278
1744.25487,0.00723
1742.76508,0.01376
1741.27529,0.01944
1739.78550,0.01512
1738.29571,0.02055
1736.80592,0.01392
1735.31614,0.01086
1733.82635,0.00545
1732.33656,0.00244
1730.84677,0.00062
1729.35698,0.00267
1727.86719,0.01447
1726.37740,0.00152
1724.88762,0.01278
1723.39783,0.01345
1721.90804,0.01355
1720.41825,0.00071
1718.92846,0.00528
1717.43867,0.00662
1715.94889,0.01242
1714.45910,0.02355
1712.96931,0.01170
1711.47952,0.01079
1709.98973,0.01462
1708.49994,0.01022
1707.01016,0.00555
1705.52037,0.00091
1704.03058,0.00071
1702.54079,0.00608
1701.05100,0.01531
1699.56121,0.01041
1698.07142,0.00818
1696.58164,0.00687
1695.09185,0.01590
1693.60206,0.01700
1692.11227,0.02195
1690.62248,0.00776
1689.13269,0.03753
1687.64291,0.03932
1686.15312,0.04024
1684.66333,0.03618
1683.17354,0.04069
1681.68375,0.03373
1680.19396,0.03770
1678.70417,0.04760
1677.21439,0.05044
1675.72460,0.03886
1674.23481,0.05001
1672.74502,0.04555
1671.25523,0.06383
1669.76544,0.05028
1668.27566,0.07126
1666.78587,0.07634
1665.29608,0.06316
1663.80629,0.06770
1662.31650,0.06962
1660.82671,0.08276
1659.33693,0.10005
1657.84714,0.09997
1656.35735,0.07545
1654.86756,0.07542
1653.37777,0.07807
1651.88798,0.08900
1650.39819,0.07460
1648.90841,0.07290
1647.41862,0.07595
1645.92883,0.07592
1644.43904,0.07592
1642.94925,0.05338
1641.45946,0.06419
1639.96968,0.05291
1638.47989,0.08176
1636.99010,0.06817
1635.50031,0.08645
1634.01052,0.07291
1632.52073,0.07326
1631.03094,0.07746
1629.54116,0.08758
1628.05137,0.09449
1626.56158,0.09729
1625.07179,0.10425
1623.58200,0.08587
1622.09221,0.08314
1620.60243,0.07897
1619.11264,0.08691
1617.62285,0.08957
1616.13306,0.08340
1614.64327,0.09790
1613.15348,0.08736
1611.66370,0.08570
1610.17391,0.08641
1608.68412,0.09099
1607.19433,0.09824
1605.70454,0.08576
1604.21475,0.09557
1602.72496,0.10541
1601.23518,0.10038
1599.74539,0.09684
1598.25560,0.08891
1596.76581,0.09015
1595.27602,0.09731
1593.78623,0.09387
1592.29645,0.10314
1590.80666,0.08001
1589.31687,0.09788
1587.82708,0.07095
1586.33729,0.07767
1584.84750,0.08559
1583.35771,0.07555
1581.86793,0.08824
1580.37814,0.09211
1578.88835,0.07772
1577.39856,0.07986
1575.90877,0.08086
1574.41898,0.06802
1572.92920,0.08026
1571.43941,0.04801
1569.94962,0.04527
1568.45983,0.04256
1566.97004,0.05785
1565.48025,0.02246
1563.99047,0.04163
1562.50068,0.03165
1561.01089,0.05500
1559.52110,0.02914
1558.03131,0.04016
1556.54152,0.03941
1555.05173,0.04724
1553.56195,0.03416
1552.07216,0.03231
1550.58237,0.04375
1549.09258,0.03428
1547.60279,0.00921
1546.11300,0.00893
1544.62322,0.00071
1543.13343,0.02626
1541.64364,0.01351
1540.15385,0.01523
1538.66406,0.01697
1537.17427,0.00577
1535.68448,0.00963
1534.19470,0.02589
1532.70491,0.01329
1531.21512,0.02105
1529.72533,0.03032
1528.23554,0.00983
1526.74575,0.02445
1525.25597,0.01875
1523.76618,0.02929
1522.27639,0.04753
1520.78660,0.04692
1519.29681,0.05046
1517.80702,0.02808
1516.31724,0.02341
1514.82745,0.03617
1513.33766,0.03760
1511.84787,0.03905
1510.35808,0.05306
1508.86829,0.04439
1507.37850,0.02307
1505.88872,0.03686
1504.39893,0.05156
1502.90914,0.06098
1501.41935,0.05184
1499.92956,0.06042
1498.43977,0.06903
1496.94999,0.08415
1495.46020,0.07836
1493.97041,0.08645
1492.48062,0.10046
1490.99083,0.10035
1489.50104,0.12060
1488.01125,0.12275
1486.52147,0.12492
1485.03168,0.13965
1483.54189,0.16147
1482.05210,0.17301
1480.56231,0.19194
1479.07252,0.22328
1477.58274,0.22132
1476.09295,0.23030
1474.60316,0.24078
1473.11337,0.24774
1471.62358,0.26092
1470.13379,0.28563
1468.64401,0.28530
1467.15422,0.28234
1465.66443,0.29606
1464.17464,0.30981
1462.68485,0.37090
1461.19506,0.39900
1459.70527,0.41739
1458.21549,0.46884
1456.72570,0.55215
1455.23591,0.60187
1453.74612,0.65486
1452.25633,0.72085
1450.76654,0.75885
1449.27676,0.76297
1447.78697,0.74529
1446.29718,0.72705
1444.80739,0.71753
1443.31760,0.70804
1441.82781,0.66923
1440.33802,0.61718
1438.84824,0.52742
1437.35845,0.48191
1435.86866,0.50099
1434.37887,0.51037
1432.88908,0.54130
1431.39929,0.61501
1429.90951,0.66987
1428.41972,0.76957
1426.92993,0.84247
1425.44014,0.89770
1423.95035,0.90047
1422.46056,0.90327
1420.97078,0.95503
1419.48099,0.99090
1417.99120,0.98876
1416.50141,1.00640
1415.01162,0.95448
1413.52183,0.87162
1412.03204,0.85808
1410.54226,0.78825
1409.05247,0.71785
1407.56268,0.64246
1406.07289,0.56681
1404.58310,0.54027
1403.09331,0.51375
1401.60353,0.46265
1400.11374,0.43574
1398.62395,0.37259
1397.13416,0.34780
1395.64437,0.27821
1394.15458,0.23725
1392.66479,0.19396
1391.17501,0.17811
1389.68522,0.13693
1388.19543,0.08634
1386.70564,0.07853
1385.21585,0.07074
1383.72606,0.04529
1382.23628,0.02988
1380.74649,0.03249
1379.25670,0.02068
1377.76691,0.03188
1376.27712,0.01009
1374.78733,0.00071
1373.29755,0.00359
1371.80776,0.01209
1370.31797,0.01973
1368.82818,0.01458
1367.33839,0.00944
1365.84860,0.00271
1364.35881,0.02208
1362.86903,0.03942
1361.37924,0.05146
1359.88945,0.08771
1358.39966,0.11013
1356.90987,0.16530
1355.42008,0.18187
1353.93030,0.26068
1352.44051,0.30030
1350.95072,0.33994
1349.46093,0.40409
1347.97114,0.52368
1346.48135,0.59141
1344.99156,0.65651
1343.50178,0.69186
1342.01199,0.76438
1340.52220,0.78356
1339.03241,0.86704
1337.54262,0.93049
1336.05283,0.96743
1334.56305,1.00440
1333.07326,1.00660
1331.58347,1.00352
1330.09368,0.95712
1328.60389,0.94907
1327.11410,0.98322
1325.62432,0.95871
1324.13453,0.95899
1322.64474,0.88353
1321.15495,0.82312
1319.66516,0.78250
1318.17537,0.74190
1316.68558,0.69277
1315.19580,0.63069
1313.70601,0.59371
1312.21622,0.56146
1310.72643,0.51804
1309.23664,0.48230
1307.74685,0.47018
1306.25707,0.41651
1304.76728,0.40842
1303.27749,0.40036
1301.78770,0.33084
1300.29791,0.28788
1298.80812,0.26854
1297.31834,0.21413
1295.82855,0.17656
1294.33876,0.13813
1292.84897,0.11711
1291.35918,0.08905
1289.86939,0.09757
1288.37960,0.10612
1286.88982,0.10378
1285.40003,0.08702
1283.91024,0.05820
1282.42045,0.05977
1280.93066,0.05900
1279.44087,0.06357
1277.95109,0.07200
1276.46130,0.05538
1274.97151,0.04985
1273.48172,0.04435
1271.99193,0.03165
1270.50214,0.03784
1269.01235,0.03786
1267.52257,0.03231
1266.03278,0.04565
1264.54299,0.02305
1263.05320,0.01314
1261.56341,0.02125
1260.07362,0.02939
1258.58384,0.01072
1257.09405,0.03040
1255.60426,0.02328
1254.11447,0.03505
1252.62468,0.01706
1251.13489,0.00795
1249.64511,0.00211
1248.15532,0.00071
1246.66553,0.00672
1245.17574,0.01276
1243.68595,0.02294
1242.19616,0.03522
1240.70637,0.02806
1239.21659,0.03007
1237.72680,0.03564
1236.23701,0.00969
1234.74722,0.02238
1233.25743,0.01785
1231.76764,0.01335
1230.27786,0.01256
1228.78807,0.02771
1227.29828,0.02078
1225.80849,0.01475
1224.31870,0.02910
1222.82891,0.00071
1221.33912,0.02498
1219.84934,0.02745
1218.35955,0.02995
1216.86976,0.01242
1215.37997,0.03531
1213.89018,0.07356
1212.40039,0.05050
1210.91061,0.07111
1209.42082,0.06609
1207.93103,0.06036
1206.44124,0.05465
1204.95145,0.07005
1203.46166,0.06159
1201.97188,0.05080
1200.48209,0.07600
1198.99230,0.05877
1197.50251,0.03478
1196.01272,0.02999
1194.52293,0.02536
1193.03314,0.02076
1191.54336,0.00071
1190.05357,0.01998
1188.56378,0.03160
1187.07399,0.00433
1185.58420,0.00805
1184.09441,0.00382
1182.60463,0.00479
1181.11484,0.00577
1179.62505,0.02286
1178.13526,0.01490
1176.64547,0.03469
1175.15568,0.01734
1173.66589,0.00710
1172.17611,0.02755
1170.68632,0.01412
1169.19653,0.00071
1167.70674,0.03346
1166.21695,0.02672
1164.72716,0.03623
1163.23738,0.03956
1161.74759,0.04853
1160.25780,0.05398
1158.76801,0.04928
1157.27822,0.04461
1155.78843,0.07874
1154.29865,0.08399
1152.80886,0.09547
1151.31907,0.09311
1149.82928,0.12291
1148.33949,0.13623
1146.84970,0.12303
1145.35991,0.10986
1143.87013,0.14536
1142.38034,0.17529
1140.89055,0.16367
1139.40076,0.18038
1137.91097,0.19740
1136.42118,0.22891
1134.93140,0.22800
1133.44161,0.22711
1131.95182,0.25604
1130.46203,0.27171
1128.97224,0.27326
1127.48245,0.27749
1125.99266,0.28617
1124.50288,0.27600
1123.01309,0.28856
1121.52330,0.30114
1120.03351,0.28161
1118.54372,0.25827
1117.05393,0.27801
1115.56415,0.28863
1114.07436,0.26035
1112.58457,0.26188
1111.09478,0.26343
1109.60499,0.26766
1108.11520,0.27840
1106.62542,0.27060
1105.13563,0.24335
1103.64584,0.25122
1102.15605,0.23435
1100.66626,0.23121
1099.17647,0.22810
1097.68668,0.22073
1096.19690,0.21398
1094.70711,0.24765
1093.21732,0.23005
1091.72753,0.20627
1090.23774,0.20773
1088.74795,0.20921
1087.25817,0.18521
1085.76838,0.18306
1084.27859,0.18742
1082.78880,0.19859
1081.29901,0.19032
1079.80922,0.18237
1078.31943,0.18446
1076.82965,0.18659
1075.33986,0.20171
1073.85007,0.20271
1072.36028,0.21522
1070.87049,0.21273
1069.38070,0.24653
1067.89092,0.24777
1066.40113,0.24904
1064.91134,0.32566
1063.42155,0.41529
1061.93176,0.51850
1060.44197,0.59461
1058.95219,0.67782
1057.46240,0.72243
1055.97261,0.76707
1054.48282,0.88043
1052.99303,0.90182
1051.50324,0.89700
1050.01345,0.94262
1048.52367,0.91986
1047.03388,0.90655
1045.54409,0.89328
1044.05430,0.86646
1042.56451,0.77097
1041.07472,0.72327
1039.58494,0.68061
1038.09515,0.63738
1036.60536,0.60258
1035.11557,0.56781
1033.62578,0.47984
1032.13599,0.41430
1030.64620,0.37444
1029.15642,0.32429
1027.66663,0.30571
1026.17684,0.28715
1024.68705,0.22262
1023.19726,0.18642
1021.70747,0.17355
1020.21769,0.12944
1018.72790,0.12958
1017.23811,0.12710
1015.74832,0.12464
1014.25853,0.09979
1012.76874,0.11773
1011.27896,0.13863
1009.78917,0.11357
1008.29938,0.10711
1006.80959,0.09167
1005.31980,0.07627
1003.83001,0.02093
1002.34022,0.00071
1000.85044,0.01317
999.36065,0.02300
997.87086,0.02887
996.38107,0.03477
994.89128,0.04231
993.40149,0.06846
991.91171,0.06662
990.42192,0.09606
988.93213,0.08601
987.44234,0.09147
985.95255,0.09695
984.46276,0.10172
982.97297,0.07320
981.48319,0.07625
979.99340,0.05633
978.50361,0.04188
977.01382,0.02746
975.52403,0.03091
974.03424,0.02907
972.54446,0.02136
971.05467,0.02282
969.56488,0.00071
968.07509,0.00780
966.58530,0.01491
965.09551,0.00715
963.60573,0.02890
962.11594,0.03742
960.62615,0.00615
959.13636,0.00306
957.64657,0.00000
956.15678,0.02693
954.66699,0.03737
953.17721,0.03368
951.68742,0.04299
950.19763,0.05999
948.70784,0.07702
947.21805,0.08640
945.72826,0.08932
944.23848,0.08136
942.74869,0.09554
941.25890,0.12654
939.76911,0.13620
938.27932,0.14588
936.78953,0.14984
935.29974,0.19068
933.80996,0.21680
932.32017,0.23174
930.83038,0.23771
929.34059,0.24370
927.85080,0.24368
926.36101,0.27641
924.87123,0.29914
923.38144,0.33163
921.89165,0.36414
920.40186,0.39667
918.91207,0.49027
917.42228,0.61102
915.93250,0.76186
914.44271,0.95519
912.95292,1.07631
911.46313,1.19745
909.97334,1.40176
908.48355,1.63057
906.99376,1.94285
905.50398,1.98389
904.01419,1.99193
902.52440,2.00000
901.03461,1.99276
899.54482,1.99910
898.05503,1.88606
896.56525,1.68311
895.07546,1.53827
893.58567,1.39345
892.09588,1.13986
890.60609,0.89573
889.11630,0.69232
887.62651,0.52372
886.13673,0.45436
884.64694,0.38503
883.15715,0.28934
881.66736,0.17745
880.17757,0.13429
878.68778,0.11739
877.19800,0.10052
875.70821,0.05095
874.21842,0.04239
872.72863,0.01792
871.23884,0.01501
869.74905,0.00785
868.25927,0.00071
866.76948,0.02371
865.27969,0.00753
863.78990,0.02763
862.30011,0.04275
860.81032,0.05111
859.32053,0.05949
857.83075,0.05846
856.34096,0.06719
854.85117,0.06975
853.36138,0.08767
851.87159,0.08218
850.38180,0.07670
848.89202,0.08851
847.40223,0.13336
845.91244,0.13430
844.42265,0.14632
842.93286,0.15837
841.44307,0.16499
839.95329,0.21380
838.46350,0.22400
836.97371,0.20150
835.48392,0.20586
833.99413,0.21025
832.50434,0.20345
831.01455,0.19108
829.52477,0.20173
828.03498,0.15609
826.54519,0.13494
825.05540,0.11382
823.56561,0.12723
822.07582,0.12768
820.58604,0.09130
819.09625,0.09210
817.60646,0.09292
816.11667,0.08965
814.62688,0.08580
813.13709,0.10144
811.64730,0.07701
810.15752,0.07324
808.66773,0.06949
807.17794,0.09202
805.68815,0.11574
804.19836,0.10352
802.70857,0.11211
801.21879,0.12073
799.72900,0.11654
798.23921,0.09056
796.74942,0.07463
795.25963,0.06949
793.76984,0.06437
792.28006,0.10336
790.79027,0.12114
789.30048,0.14337
787.81069,0.14941
786.32090,0.15473
784.83111,0.16008
783.34132,0.18389
781.85154,0.23101
780.36175,0.27108
778.87196,0.28921
777.38217,0.30736
775.89238,0.33100
774.40259,0.33460
772.91281,0.33942
771.42302,0.33113
769.93323,0.32287
768.44344,0.28530
766.95365,0.22210
765.46386,0.21230
763.97407,0.17657
762.48429,0.15855
760.99450,0.14057
759.50471,0.11405
758.01492,0.10054
756.52513,0.06965
755.03534,0.06724
753.54556,0.06486
752.05577,0.08093
750.56598,0.06046
749.07619,0.03412
747.58640,0.03582
746.09661,0.03754
744.60683,0.03633
743.11704,0.02248
741.62725,0.02663
740.13746,0.02049
738.64767,0.01437
737.15788,0.01801
735.66809,0.01047
734.17831,0.01328
732.68852,0.01301
731.19873,0.01277
729.70894,0.00945
728.21915,0.03388
726.72936,0.03593
725.23958,0.00674
723.74979,0.00795
722.26000,0.00918
720.77021,0.00071
719.28042,0.02287
717.79063,0.01733
716.30084,0.02052
714.81106,0.02374
713.32127,0.02506
711.83148,0.01933
710.34169,0.04223
708.85190,0.04407
707.36211,0.04593
705.87233,0.04591
704.38254,0.06743
702.89275,0.05241
701.40296,0.05423
699.91317,0.05607
698.42338,0.06088
696.93360,0.08931
695.44381,0.12248
693.95402,0.11675
692.46423,0.11105
690.97444,0.12041
689.48465,0.14366
687.99486,0.18757
686.50508,0.19391
685.01529,0.20027
683.52550,0.23335
682.03571,0.26379
680.54592,0.29279
679.05613,0.28908
677.56635,0.28539
676.07656,0.24989
674.58677,0.23181
673.09698,0.22643
671.60719,0.20206
670.11740,0.17771
668.62761,0.17801
667.13783,0.17096
665.64804,0.16247
664.15825,0.15399
662.66846,0.12550
661.17867,0.09997
659.68888,0.07093
658.19910,0.07657
656.70931,0.08222
655.21952,0.05385
653.72973,0.06884
652.23994,0.05585
650.75015,0.04495
649.26037,0.03407
647.77058,0.04622
646.28079,0.03067
644.79100,0.03756
643.30121,0.03430
641.81142,0.03106
640.32163,0.03773
638.83185,0.05799
637.34206,0.02667
635.85227,0.02368
634.36248,0.02072
632.87269,0.00539
631.38290,0.00071
629.89312,0.01497
628.40333,0.01598
626.91354,0.01702
625.42375,0.01838
623.93396,0.01210
622.44417,0.01027
620.95438,0.00846
619.46460,0.00726
617.97481,0.00698
616.48502,0.07365
614.99523,0.07740
613.50544,0.08117
612.01565,0.10545
610.52587,0.14303
609.03608,0.15852
607.54629,0.19188
606.05650,0.22526
604.56671,0.27650
603.07692,0.33927
601.58714,0.35356
600.09735,0.36787
598.60756,0.40005
597.11777,0.43372
595.62798,0.42201
594.13819,0.41004
592.64840,0.39809
591.15862,0.36522
589.66883,0.30968
588.17904,0.28277
586.68925,0.23362
585.19946,0.18449
583.70967,0.14998
582.21989,0.10842
580.73010,0.08547
579.24031,0.06253
577.75052,0.07058
576.26073,0.07748
574.77094,0.06317
573.28115,0.04683
571.79137,0.03050
570.30158,0.06463
568.81179,0.05661
567.32200,0.07722
565.83221,0.09785
564.34242,0.08962
562.85264,0.09172
561.36285,0.10889
559.87306,0.12137
558.38327,0.13387
556.89348,0.10247
555.40369,0.15423
553.91391,0.15399
552.42412,0.15376
550.93433,0.18408
549.44454,0.17108
547.95475,0.18818
546.46496,0.18879
544.97517,0.18942
543.48539,0.23225
541.99560,0.24797
540.50581,0.26387
539.01602,0.27979
537.52623,0.32596
536.03644,0.36242
534.54666,0.41542
533.05687,0.43675
531.56708,0.45810
530.07729,0.52179
528.58750,0.56280
527.09771,0.60723
525.60792,0.65168
524.11814,0.72107
522.62835,0.76601
521.13856,0.80950
519.64877,0.86083
518.15898,0.91219
516.66919,0.92038
515.17941,0.93360
513.68962,0.91913
512.19983,0.90468
510.71004,0.84368
509.22025,0.78624
507.73046,0.73914
506.24068,0.69457
504.75089,0.65003
503.26110,0.56762
501.77131,0.42686
500.28152,0.35718
498.79173,0.28753
497.30194,0.20758
495.81216,0.18898
494.32237,0.17484
492.83258,0.16072
491.34279,0.13424
489.85300,0.08861
488.36321,0.08872
486.87343,0.09018
485.38364,0.09166
483.89385,0.06236
482.40406,0.10030
480.91427,0.10304
479.42448,0.10580
477.93469,0.11728
476.44491,0.16536
474.95512,0.16672
473.46533,0.16810
471.97554,0.17556
470.48575,0.20368
468.99596,0.19556
467.50618,0.18200
466.01639,0.16848
464.52660,0.12210
463.03681,0.07781
461.54702,0.05227
460.05723,0.02675
458.56745,0.00288
457.07766,0.02680
455.58787,0.01374
454.09808,0.00071
452.60829,0.01112
451.11850,0.00503
449.62871,0.01210
448.13893,0.01919
446.64914,0.03146
445.15935,0.02371
443.66956,0.00655
442.17977,0.00725
440.68998,0.00798
439.20020,0.01654
437.71041,0.03103
436.22062,0.03581
434.73083,0.04062
433.24104,0.03631
431.75125,0.04677
430.26146,0.05032
428.77168,0.05390
427.28189,0.03642
425.79210,0.03047
424.30231,0.04459
422.81252,0.05874
421.32273,0.05168
419.83295,0.04170
418.34316,0.05326
416.85337,0.06485
415.36358,0.02900
413.87379,0.01941
412.38400,0.02164
410.89422,0.02390
409.40443,0.02087
407.91464,0.00548
406.42485,0.03341
404.93506,0.03909
403.44527,0.04481
401.95548,0.02681
400.46570,0.01178
398.97591,0.02199
397.48612,0.03222
395.99633,0.01521
394.50654,0.00352
393.01675,0.02032
391.52697,0.03439
390.03718,0.02181
388.54739,0.02222
387.05760,0.01145
385.56781,0.00071
384.07802,0.01792
382.58824,0.00655
381.09845,0.01570
379.60866,0.02487
378.11887,0.01535
376.62908,0.03858
375.13929,0.02940
373.64950,0.02024
372.15972,0.04178
370.66993,0.05302
369.18014,0.04320
367.69035,0.03341
366.20056,0.01671
364.71077,0.02910
363.22099,0.04152
361.73120,0.05396
360.24141,0.04136
358.75162,0.06388
357.26183,0.06106
355.77204,0.05827
354.28225,0.02779
352.79247,0.03448
351.30268,0.05668
349.81289,0.07890
348.32310,0.06414
346.83331,0.08951
345.34352,0.06463
343.85374,0.03978
342.36395,0.03986
340.87416,0.03024
339.38437,0.02419
337.89458,0.01815
336.40479,0.03397
334.91501,0.01236
333.42522,0.01849
331.93543,0.02464
330.44564,0.02758
328.95585,0.02671
327.46606,0.01510
325.97627,0.00352
324.48649,0.03042
322.99670,0.04733
321.50691,0.05231
320.01712,0.05732
318.52733,0.10703
317.03754,0.09455
315.54776,0.08577
314.05797,0.07703
312.56818,0.07995
311.07839,0.07494
309.58860,0.06450
308.09881,0.05408
306.60902,0.02909
305.11924,0.04276
303.62945,0.02283
302.13966,0.00293
300.64987,0.00071
299.16008,0.00071
