1778.52000,0.00000
1777.03021,0.01268
1775.54042,0.00694
1774.05063,0.01120
1772.56085,0.02071
1771.07106,0.01454
1769.58127,0.01388
1768.09148,0.00627
1766.60169,0.00890
1765.11190,0.01255
1763.62212,0.00401
1762.13233,0.01345
1760.64254,0.01468
1759.15275,0.02043
1757.66296,0.00800
1756.17317,0.00631
1754.68339,0.01487
1753.19360,0.00999
1751.70381,0.01262
1750.21402,0.01203
1748.72423,0.00598
1747.23444,0.02142
1745.74465,0.01195
1744.25487,0.01572
1742.76508,0.01653
1741.27529,0.01536
1739.78550,0.02419
1738.29571,0.02083
1736.80592,0.02497
1735.31614,0.01293
1733.82635,0.02186
1732.33656,0.02159
1730.84677,0.00439
1729.35698,0.01008
1727.86719,0.02004
1726.37740,0.01081
1724.88762,0.01309
1723.39783,0.01813
1721.90804,0.01770
1720.41825,0.00783
1718.92846,0.01340
1717.43867,0.00977
1715.94889,0.02063
1714.45910,0.01480
1712.96931,0.01174
1711.47952,0.01045
1709.98973,0.02091
1708.49994,0.01593
1707.01016,0.01409
1705.52037,0.01227
1704.03058,0.01934
1702.54079,0.00847
1701.05100,0.01358
1699.56121,0.00401
1698.07142,0.01609
1696.58164,0.00999
1695.09185,0.02287
1693.60206,0.02130
1692.11227,0.01877
1690.62248,0.01825
1689.13269,0.02200
1687.64291,0.02752
1686.15312,0.03381
1684.66333,0.02192
1683.17354,0.02551
1681.68375,0.02490
1680.19396,0.03053
1678.70417,0.02897
1677.21439,0.03216
1675.72460,0.03313
1674.23481,0.04186
1672.74502,0.03665
1671.25523,0.04219
1669.76544,0.06146
1668.27566,0.06181
1666.78587,0.05994
1665.29608,0.05909
1663.80629,0.06599
1662.31650,0.07516
1660.82671,0.06940
1659.33693,0.07414
1657.84714,0.08039
1656.35735,0.07520
1654.86756,0.07252
1653.37777,0.07785
1651.88798,0.08445
1650.39819,0.08136
1648.90841,0.09374
1647.41862,0.08894
1645.92883,0.08567
1644.43904,0.08242
1642.94925,0.08268
1641.45946,0.08172
1639.96968,0.08403
1638.47989,0.08761
1636.99010,0.09121
1635.50031,0.08437
1634.01052,0.08328
1632.52073,0.09594
1631.03094,0.09166
1629.54116,0.10087
1628.05137,0.11260
1626.56158,0.12111
1625.07179,0.10845
1623.58200,0.10753
1622.09221,0.10565
1620.60243,0.09954
1619.11264,0.09920
1617.62285,0.09439
1616.13306,0.09136
1614.64327,0.09134
1613.15348,0.10331
1611.66370,0.10084
1610.17391,0.10738
1608.68412,0.08751
1607.19433,0.09584
1605.70454,0.10644
1604.21475,0.10546
1602.72496,0.10452
1601.23518,0.09823
1599.74539,0.07751
1598.25560,0.09696
1596.76581,0.09648
1595.27602,0.09753
1593.78623,0.09560
1592.29645,0.08947
1590.80666,0.09208
1589.31687,0.09522
1587.82708,0.09190
1586.33729,0.08885
1584.84750,0.08857
1583.35771,0.08158
1581.86793,0.08334
1580.37814,0.09286
1578.88835,0.08320
1577.39856,0.06808
1575.90877,0.07219
1574.41898,0.06883
1572.92920,0.06650
1571.43941,0.07617
1569.94962,0.07251
1568.45983,0.06889
1566.97004,0.04471
1565.48025,0.03727
1563.99047,0.03883
1562.50068,0.03617
1561.01089,0.02207
1559.52110,0.03541
1558.03131,0.02984
1556.54152,0.03675
1555.05173,0.03895
1553.56195,0.02447
1552.07216,0.04193
1550.58237,0.04146
1549.09258,0.03105
1547.60279,0.02589
1546.11300,0.03996
1544.62322,0.02513
1543.13343,0.02179
1541.64364,0.00401
1540.15385,0.01126
1538.66406,0.01853
1537.17427,0.01810
1535.68448,0.02019
1534.19470,0.03975
1532.70491,0.02169
1531.21512,0.03556
1529.72533,0.03451
1528.23554,0.02599
1526.74575,0.03545
1525.25597,0.02973
1523.76618,0.04149
1522.27639,0.04579
1520.78660,0.04014
1519.29681,0.06219
1517.80702,0.04312
1516.31724,0.03979
1514.82745,0.04047
1513.33766,0.04392
1511.84787,0.04739
1510.35808,0.05064
1508.86829,0.06439
1507.37850,0.05746
1505.88872,0.06477
1504.39893,0.06413
1502.90914,0.06500
1501.41935,0.07313
1499.92956,0.07231
1498.43977,0.07725
1496.94999,0.09319
1495.46020,0.09992
1493.97041,0.09895
1492.48062,0.13191
1490.99083,0.12525
1489.50104,0.14455
1488.01125,0.15103
1486.52147,0.15753
1485.03168,0.17815
1483.54189,0.20228
1482.05210,0.22220
1480.56231,0.24563
1479.07252,0.23767
1477.58274,0.28260
1476.09295,0.26297
1474.60316,0.27179
1473.11337,0.28163
1471.62358,0.29773
1470.13379,0.30612
1468.64401,0.29110
1467.15422,0.29481
1465.66443,0.32123
1464.17464,0.34767
1462.68485,0.40929
1461.19506,0.42332
1459.70527,0.48075
1458.21549,0.53521
1456.72570,0.60092
1455.23591,0.64895
1453.74612,0.70349
1452.25633,0.78000
1450.76654,0.78522
1449.27676,0.79819
1447.78697,0.78950
1446.29718,0.74368
1444.80739,0.73578
1443.31760,0.72791
1441.82781,0.68416
1440.33802,0.62448
1438.84824,0.57205
1437.35845,0.53361
1435.86866,0.53832
1434.37887,0.54905
1432.88908,0.58972
1431.39929,0.64337
1429.90951,0.70279
1428.41972,0.82057
1426.92993,0.88776
1425.44014,0.92855
1423.95035,0.94818
1422.46056,0.96782
1420.97078,1.02763
1419.48099,1.04708
1417.99120,1.04236
1416.50141,1.02895
1415.01162,0.97666
1413.52183,0.94833
1412.03204,0.88213
1410.54226,0.84164
1409.05247,0.73410
1407.56268,0.66348
1406.07289,0.59264
1404.58310,0.55199
1403.09331,0.51137
1401.60353,0.47625
1400.11374,0.43069
1398.62395,0.36945
1397.13416,0.32743
1395.64437,0.26149
1394.15458,0.25393
1392.66479,0.20375
1391.17501,0.18851
1389.68522,0.15184
1388.19543,0.11445
1386.70564,0.09916
1385.21585,0.08388
1383.72606,0.06776
1382.23628,0.06039
1380.74649,0.02911
1379.25670,0.02328
1377.76691,0.02870
1376.27712,0.00821
1374.78733,0.01592
1373.29755,0.01069
1371.80776,0.00249
1370.31797,0.00663
1368.82818,0.00531
1367.33839,0.00401
1365.84860,0.01969
1364.35881,0.02667
1362.86903,0.02345
1361.37924,0.05192
1359.88945,0.07269
1358.39966,0.08226
1356.90987,0.12850
1355.42008,0.17353
1353.93030,0.23852
1352.44051,0.26252
1350.95072,0.28655
1349.46093,0.37780
1347.97114,0.47555
1346.48135,0.55238
1344.99156,0.65367
1343.50178,0.70936
1342.01199,0.75111
1340.52220,0.78990
1339.03241,0.82746
1337.54262,0.87228
1336.05283,0.89742
1334.56305,0.92259
1333.07326,0.98493
1331.58347,0.96652
1330.09368,0.94489
1328.60389,0.91430
1327.11410,0.90544
1325.62432,0.88213
1324.13453,0.85561
1322.64474,0.81815
1321.15495,0.80713
1319.66516,0.77869
1318.17537,0.75027
1316.68558,0.68273
1315.19580,0.61323
1313.70601,0.58264
1312.21622,0.52839
1310.72643,0.48464
1309.23664,0.46584
1307.74685,0.44058
1306.25707,0.40862
1304.76728,0.38753
1303.27749,0.36646
1301.78770,0.33258
1300.29791,0.29922
1298.80812,0.23771
1297.31834,0.19492
1295.82855,0.17036
1294.33876,0.14482
1292.84897,0.12630
1291.35918,0.09258
1289.86939,0.09941
1288.37960,0.10626
1286.88982,0.09631
1285.40003,0.08064
1283.91024,0.06575
1282.42045,0.05213
1280.93066,0.06197
1279.44087,0.05513
1277.95109,0.05380
1276.46130,0.02906
1274.97151,0.03662
1273.48172,0.04422
1271.99193,0.03875
1270.50214,0.02831
1269.01235,0.03112
1267.52257,0.03295
1266.03278,0.03605
1264.54299,0.02671
1263.05320,0.03011
1261.56341,0.02855
1260.07362,0.02702
1258.58384,0.01354
1257.09405,0.01778
1255.60426,0.01457
1254.11447,0.01114
1252.62468,0.01596
1251.13489,0.01656
1249.64511,0.00547
1248.15532,0.01460
1246.66553,0.00929
1245.17574,0.00401
1243.68595,0.01152
1242.19616,0.02878
1240.70637,0.04158
1239.21659,0.04867
1237.72680,0.02162
1236.23701,0.02900
1234.74722,0.01497
1233.25743,0.01006
1231.76764,0.00518
1230.27786,0.01066
1228.78807,0.02017
1227.29828,0.00875
1225.80849,0.01481
1224.31870,0.01865
1222.82891,0.02475
1221.33912,0.01867
1219.84934,0.02832
1218.35955,0.03799
1216.86976,0.03621
1215.37997,0.05242
1213.89018,0.06565
1212.40039,0.06196
1210.91061,0.08048
1209.42082,0.06835
1207.93103,0.06922
1206.44124,0.07011
1204.95145,0.06704
1203.46166,0.06723
1201.97188,0.06370
1200.48209,0.06095
1198.99230,0.07169
1197.50251,0.05353
1196.01272,0.05135
1194.52293,0.04196
1193.03314,0.03260
1191.54336,0.02750
1190.05357,0.02243
1188.56378,0.02635
1187.07399,0.03205
1185.58420,0.01159
1184.09441,0.00337
1182.60463,0.00423
1181.11484,0.00510
1179.62505,0.00401
1178.13526,0.00841
1176.64547,0.01932
1175.15568,0.02227
1173.66589,0.02026
1172.17611,0.02800
1170.68632,0.02292
1169.19653,0.01787
1167.70674,0.02294
1166.21695,0.01232
1164.72716,0.02218
1163.23738,0.03081
1161.74759,0.03398
1160.25780,0.06685
1158.76801,0.07281
1157.27822,0.07880
1155.78843,0.07908
1154.29865,0.08412
1152.80886,0.11037
1151.31907,0.12668
1149.82928,0.12257
1148.33949,0.13469
1146.84970,0.14994
1145.35991,0.16523
1143.87013,0.15672
1142.38034,0.15947
1140.89055,0.16722
1139.40076,0.19120
1137.91097,0.18304
1136.42118,0.20982
1134.93140,0.22066
1133.44161,0.23152
1131.95182,0.23244
1130.46203,0.23712
1128.97224,0.25030
1127.48245,0.28720
1125.99266,0.26777
1124.50288,0.27703
1123.01309,0.28034
1121.52330,0.28367
1120.03351,0.27606
1118.54372,0.24678
1117.05393,0.23348
1115.56415,0.25735
1114.07436,0.28773
1112.58457,0.28971
1111.09478,0.29172
1109.60499,0.26433
1108.11520,0.25467
1106.62542,0.24553
1105.13563,0.23965
1103.64584,0.22682
1102.15605,0.23271
1100.66626,0.23040
1099.17647,0.22811
1097.68668,0.23383
1096.19690,0.22686
1094.70711,0.24758
1093.21732,0.22071
1091.72753,0.23300
1090.23774,0.23460
1088.74795,0.23623
1087.25817,0.20472
1085.76838,0.18545
1084.27859,0.20933
1082.78880,0.19335
1081.29901,0.20407
1079.80922,0.20933
1078.31943,0.21163
1076.82965,0.21395
1075.33986,0.25144
1073.85007,0.26428
1072.36028,0.27639
1070.87049,0.28878
1069.38070,0.30668
1067.89092,0.32261
1066.40113,0.33856
1064.91134,0.40216
1063.42155,0.51515
1061.93176,0.60547
1060.44197,0.67812
1058.95219,0.78993
1057.46240,0.84617
1055.97261,0.90244
1054.48282,0.98091
1052.99303,1.06789
1051.50324,1.09805
1050.01345,1.06640
1048.52367,1.07990
1047.03388,1.07448
1045.54409,1.06908
1044.05430,0.99315
1042.56451,0.84120
1041.07472,0.78077
1039.58494,0.74206
1038.09515,0.65052
1036.60536,0.60724
1035.11557,0.56399
1033.62578,0.49247
1032.13599,0.44565
1030.64620,0.36196
1029.15642,0.35085
1027.66663,0.31620
1026.17684,0.28157
1024.68705,0.22815
1023.19726,0.18372
1021.70747,0.17572
1020.21769,0.13259
1018.72790,0.12314
1017.23811,0.11596
1015.74832,0.10881
1014.25853,0.10841
1012.76874,0.08934
1011.27896,0.10445
1009.78917,0.08418
1008.29938,0.08861
1006.80959,0.07176
1005.31980,0.05492
1003.83001,0.01605
1002.34022,0.02333
1000.85044,0.02464
999.36065,0.06264
997.87086,0.05602
996.38107,0.04944
994.89128,0.09224
993.40149,0.09592
991.91171,0.12232
990.42192,0.13677
988.93213,0.14452
987.44234,0.14169
985.95255,0.13889
984.46276,0.15069
982.97297,0.13809
981.48319,0.11754
979.99340,0.09102
978.50361,0.09096
977.01382,0.09092
975.52403,0.06473
974.03424,0.04604
972.54446,0.03461
971.05467,0.02195
969.56488,0.00458
968.07509,0.00662
966.58530,0.00868
965.09551,0.02261
963.60573,0.02136
962.11594,0.00467
960.62615,0.00676
959.13636,0.00537
957.64657,0.00401
956.15678,0.00629
954.66699,0.00910
953.17721,0.01766
951.68742,0.02550
950.19763,0.03660
948.70784,0.04773
947.21805,0.06063
945.72826,0.07405
944.23848,0.08251
942.74869,0.09498
941.25890,0.11870
939.76911,0.12399
938.27932,0.12931
936.78953,0.14911
935.29974,0.16469
933.80996,0.18654
932.32017,0.22137
930.83038,0.22818
929.34059,0.23501
927.85080,0.24673
926.36101,0.27319
924.87123,0.29991
923.38144,0.36182
921.89165,0.38349
920.40186,0.40518
918.91207,0.49034
917.42228,0.63961
915.93250,0.79040
914.44271,0.99457
912.95292,1.09193
911.46313,1.18931
909.97334,1.45289
908.48355,1.68284
906.99376,1.86095
905.50398,1.93836
904.01419,1.96917
902.52440,2.00000
901.03461,1.98373
899.54482,1.93109
898.05503,1.77002
896.56525,1.61171
895.07546,1.47961
893.58567,1.34753
892.09588,1.07760
890.60609,0.85082
889.11630,0.63429
887.62651,0.49034
886.13673,0.41673
884.64694,0.34314
883.15715,0.26533
881.66736,0.18880
880.17757,0.13996
878.68778,0.11933
877.19800,0.09872
875.70821,0.06716
874.21842,0.06155
872.72863,0.04775
871.23884,0.03247
869.74905,0.02444
868.25927,0.01645
866.76948,0.02493
865.27969,0.03069
863.78990,0.03398
862.30011,0.02708
860.81032,0.04313
859.32053,0.05922
857.83075,0.08106
856.34096,0.09370
854.85117,0.12107
853.36138,0.16268
851.87159,0.16380
850.38180,0.16495
848.89202,0.18594
847.40223,0.19997
845.91244,0.23123
844.42265,0.23995
842.93286,0.24870
841.44307,0.26358
839.95329,0.28995
838.46350,0.32059
836.97371,0.29988
835.48392,0.30177
833.99413,0.30368
832.50434,0.28106
831.01455,0.29337
829.52477,0.25409
828.03498,0.23652
826.54519,0.21886
825.05540,0.20122
823.56561,0.18747
822.07582,0.16851
820.58604,0.15730
819.09625,0.16182
817.60646,0.16637
816.11667,0.15224
814.62688,0.16133
813.13709,0.16395
811.64730,0.17558
810.15752,0.16479
808.66773,0.15403
807.17794,0.17919
805.68815,0.16947
804.19836,0.17474
802.70857,0.17990
801.21879,0.18509
799.72900,0.17223
798.23921,0.14568
796.74942,0.14808
795.25963,0.15075
793.76984,0.15344
792.28006,0.17536
790.79027,0.20253
789.30048,0.22475
787.81069,0.24250
786.32090,0.25130
784.83111,0.26012
783.34132,0.27919
781.85154,0.32646
780.36175,0.38398
778.87196,0.40026
777.38217,0.41656
775.89238,0.46517
774.40259,0.47392
772.91281,0.41936
771.42302,0.42242
769.93323,0.42550
768.44344,0.35630
766.95365,0.29586
765.46386,0.26411
763.97407,0.21618
762.48429,0.19159
760.99450,0.16702
759.50471,0.16254
758.01492,0.13067
756.52513,0.10131
755.03534,0.09242
753.54556,0.08355
752.05577,0.06848
750.56598,0.06739
749.07619,0.05561
747.58640,0.04497
746.09661,0.03436
744.60683,0.03811
743.11704,0.02617
741.62725,0.01875
740.13746,0.01247
738.64767,0.00622
737.15788,0.01408
735.66809,0.00401
734.17831,0.00560
732.68852,0.00560
731.19873,0.00562
729.70894,0.00479
728.21915,0.01620
726.72936,0.01043
725.23958,0.01940
723.74979,0.01779
722.26000,0.01621
720.77021,0.01852
719.28042,0.01686
717.79063,0.00401
716.30084,0.00731
714.81106,0.01064
713.32127,0.03032
711.83148,0.03082
710.34169,0.03858
708.85190,0.03328
707.36211,0.02800
705.87233,0.04506
704.38254,0.06139
702.89275,0.05282
701.40296,0.06808
699.91317,0.08337
698.42338,0.07312
696.93360,0.07238
695.44381,0.09210
693.95402,0.10200
692.46423,0.11192
690.97444,0.14069
689.48465,0.14356
687.99486,0.16041
686.50508,0.17754
685.01529,0.19469
683.52550,0.21710
682.03571,0.23754
680.54592,0.27521
679.05613,0.26877
677.56635,0.26236
676.07656,0.25622
674.58677,0.24537
673.09698,0.22282
671.60719,0.20716
670.11740,0.19152
668.62761,0.18500
667.13783,0.14261
665.64804,0.13352
664.15825,0.12446
662.66846,0.11156
661.17867,0.08322
659.68888,0.06513
658.19910,0.05393
656.70931,0.04274
655.21952,0.03894
653.72973,0.04663
652.23994,0.04587
650.75015,0.03416
649.26037,0.02248
647.77058,0.02228
646.28079,0.03583
644.79100,0.02222
643.30121,0.03532
641.81142,0.04844
640.32163,0.03391
638.83185,0.03935
637.34206,0.03310
635.85227,0.02176
634.36248,0.01044
632.87269,0.00401
631.38290,0.00898
629.89312,0.00400
628.40333,0.00353
626.91354,0.00308
625.42375,0.00241
623.93396,0.00750
622.44417,0.00924
620.95438,0.01101
619.46460,0.01667
617.97481,0.02909
616.48502,0.07195
614.99523,0.08703
613.50544,0.10214
612.01565,0.10866
610.52587,0.13442
609.03608,0.15720
607.54629,0.18462
606.05650,0.21207
604.56671,0.26858
603.07692,0.31665
601.58714,0.33818
600.09735,0.35974
598.60756,0.43531
597.11777,0.47449
595.62798,0.43641
594.13819,0.42802
592.64840,0.41966
591.15862,0.37018
589.66883,0.29879
588.17904,0.26382
586.68925,0.23536
585.19946,0.20693
583.70967,0.15857
582.21989,0.11298
580.73010,0.08948
579.24031,0.06600
577.75052,0.03170
576.26073,0.05029
574.77094,0.06142
573.28115,0.05125
571.79137,0.04111
570.30158,0.05979
568.81179,0.08797
567.32200,0.09635
565.83221,0.10476
564.34242,0.10010
562.85264,0.14459
561.36285,0.13798
559.87306,0.14886
558.38327,0.15975
556.89348,0.16918
555.40369,0.19085
553.91391,0.19521
552.42412,0.19960
550.93433,0.22832
549.44454,0.23164
547.95475,0.22500
546.46496,0.23909
544.97517,0.25320
543.48539,0.28977
541.99560,0.30517
540.50581,0.32584
539.01602,0.34653
537.52623,0.37297
536.03644,0.40119
534.54666,0.40450
533.05687,0.45109
531.56708,0.49771
530.07729,0.54373
528.58750,0.57057
527.09771,0.60006
525.60792,0.62957
524.11814,0.69912
522.62835,0.76246
521.13856,0.81386
519.64877,0.84559
518.15898,0.87734
516.66919,0.91560
515.17941,0.90002
513.68962,0.89208
512.19983,0.88416
510.71004,0.84947
509.22025,0.80033
507.73046,0.72679
506.24068,0.67758
504.75089,0.62840
503.26110,0.55293
501.77131,0.42788
500.28152,0.37241
498.79173,0.31696
497.30194,0.23062
495.81216,0.18994
494.32237,0.17384
492.83258,0.15776
491.34279,0.13210
489.85300,0.09226
488.36321,0.09159
486.87343,0.09792
485.38364,0.10428
483.89385,0.10443
482.40406,0.10635
480.91427,0.11764
479.42448,0.12896
477.93469,0.16611
476.44491,0.18907
474.95512,0.20557
473.46533,0.22209
471.97554,0.24712
470.48575,0.22954
468.99596,0.25885
467.50618,0.23047
466.01639,0.20212
464.52660,0.17990
463.03681,0.13900
461.54702,0.10847
460.05723,0.07797
458.56745,0.05510
457.07766,0.05419
455.58787,0.03224
454.09808,0.01031
452.60829,0.00723
451.11850,0.01390
449.62871,0.02109
448.13893,0.02831
446.64914,0.04926
445.15935,0.01215
443.66956,0.00772
442.17977,0.00768
440.68998,0.00766
439.20020,0.04096
437.71041,0.06031
436.22062,0.06635
434.73083,0.07242
433.24104,0.05220
431.75125,0.03002
430.26146,0.03765
428.77168,0.04531
427.28189,0.04738
425.79210,0.04724
424.30231,0.05846
422.81252,0.06970
421.32273,0.06589
419.83295,0.04914
418.34316,0.04587
416.85337,0.04263
415.36358,0.03966
413.87379,0.04619
412.38400,0.04564
410.89422,0.04511
409.40443,0.04424
407.91464,0.05486
406.42485,0.03707
404.93506,0.04537
403.44527,0.05369
401.95548,0.03873
400.46570,0.04598
398.97591,0.04340
397.48612,0.04085
395.99633,0.05017
394.50654,0.04929
393.01675,0.04008
391.52697,0.03089
390.03718,0.01837
388.54739,0.03201
387.05760,0.02524
385.56781,0.01849
384.07802,0.02548
382.58824,0.01553
381.09845,0.02668
379.60866,0.03786
378.11887,0.02325
376.62908,0.01440
375.13929,0.00920
373.64950,0.00401
372.15972,0.05266
370.66993,0.04024
369.18014,0.04406
367.69035,0.04790
366.20056,0.03431
364.71077,0.02798
363.22099,0.04099
361.73120,0.05403
360.24141,0.04827
358.75162,0.06298
357.26183,0.05752
355.77204,0.05208
354.28225,0.04417
352.79247,0.06720
351.30268,0.07306
349.81289,0.07894
348.32310,0.08160
346.83331,0.09126
345.34352,0.07303
343.85374,0.05482
342.36395,0.06382
340.87416,0.04092
339.38437,0.04572
337.89458,0.05055
336.40479,0.05714
334.91501,0.05329
333.42522,0.04697
331.93543,0.04068
330.44564,0.04737
328.95585,0.03240
327.46606,0.03216
325.97627,0.03195
324.48649,0.04314
322.99670,0.07878
321.50691,0.08865
320.01712,0.09854
318.52733,0.13252
317.03754,0.11241
315.54776,0.12163
314.05797,0.13087
312.56818,0.10212
311.07839,0.12075
309.58860,0.10800
308.09881,0.09528
306.60902,0.05315
305.11924,0.04521
303.62945,0.03543
302.13966,0.00947
300.64987,0.00401
299.16008,0.00401
