1778.52000,0.01220
1777.03021,0.00137
1775.54042,0.01533
1774.05063,0.02414
1772.56085,0.01638
1771.07106,0.01872
1769.58127,0.01046
1768.09148,0.01120
1766.60169,0.01170
1765.11190,0.01549
1763.62212,0.00516
1762.13233,0.01416
1760.64254,0.01966
1759.15275,0.01837
1757.66296,0.01602
1756.17317,0.00853
1754.68339,0.01820
1753.19360,0.00395
1751.70381,0.02184
1750.21402,0.01444
1748.72423,0.01713
1747.23444,0.00516
1745.74465,0.01892
1744.25487,0.01393
1742.76508,0.01984
1741.27529,0.01300
1739.78550,0.02522
1738.29571,0.01488
1736.80592,0.02008
1735.31614,0.01496
1733.82635,0.01504
1732.33656,0.01051
1730.84677,0.01445
1729.35698,0.01296
1727.86719,0.01314
1726.37740,0.02449
1724.88762,0.02308
1723.39783,0.02604
1721.90804,0.02414
1720.41825,0.01899
1718.92846,0.00516
1717.43867,0.01366
1715.94889,0.02328
1714.45910,0.01878
1712.96931,0.01157
1711.47952,0.01609
1709.98973,0.02254
1708.49994,0.01596
1707.01016,0.01457
1705.52037,0.01320
1704.03058,0.01784
1702.54079,0.00618
1701.05100,0.00516
1699.56121,0.02216
1698.07142,0.01551
1696.58164,0.01732
1695.09185,0.01834
1693.60206,0.01285
1692.11227,0.01882
1690.62248,0.01093
1689.13269,0.01721
1687.64291,0.01563
1686.15312,0.01952
1684.66333,0.01907
1683.17354,0.02110
1681.68375,0.01363
1680.19396,0.01788
1678.70417,0.02107
1677.21439,0.02891
1675.72460,0.02616
1674.23481,0.03079
1672.74502,0.02292
1671.25523,0.03004
1669.76544,0.03636
1668.27566,0.03727
1666.78587,0.04202
1665.29608,0.05168
1663.80629,0.05376
1662.31650,0.06429
1660.82671,0.06205
1659.33693,0.07399
1657.84714,0.07180
1656.35735,0.06066
1654.86756,0.06043
1653.37777,0.07274
1651.88798,0.06493
1650.39819,0.08083
1648.90841,0.09974
1647.41862,0.08031
1645.92883,0.07954
1644.43904,0.07879
1642.94925,0.07386
1641.45946,0.07439
1639.96968,0.08229
1638.47989,0.07143
1636.99010,0.09381
1635.50031,0.08572
1634.01052,0.09562
1632.52073,0.09494
1631.03094,0.08475
1629.54116,0.08302
1628.05137,0.09166
1626.56158,0.09951
1625.07179,0.09758
1623.58200,0.09595
1622.09221,0.08672
1620.60243,0.08977
1619.11264,0.09365
1617.62285,0.10464
1616.13306,0.08435
1614.64327,0.08151
1613.15348,0.08603
1611.66370,0.08677
1610.17391,0.10087
1608.68412,0.09241
1607.19433,0.08751
1605.70454,0.10521
1604.21475,0.09982
1602.72496,0.09444
1601.23518,0.08528
1599.74539,0.09248
1598.25560,0.10377
1596.76581,0.09768
1595.27602,0.10413
1593.78623,0.08720
1592.29645,0.09288
1590.80666,0.07899
1589.31687,0.08663
1587.82708,0.09347
1586.33729,0.08210
1584.84750,0.08001
1583.35771,0.09128
1581.86793,0.09114
1580.37814,0.09321
1578.88835,0.08087
1577.39856,0.07101
1575.90877,0.07560
1574.41898,0.06524
1572.92920,0.06661
1571.43941,0.05521
1569.94962,0.05772
1568.45983,0.06025
1566.97004,0.03423
1565.48025,0.03082
1563.99047,0.03533
1562.50068,0.03578
1561.01089,0.03952
1559.52110,0.03213
1558.03131,0.03020
1556.54152,0.02204
1555.05173,0.03866
1553.56195,0.01939
1552.07216,0.02872
1550.58237,0.00542
1549.09258,0.01561
1547.60279,0.01167
1546.11300,0.02763
1544.62322,0.01585
1543.13343,0.00927
1541.64364,0.00516
1540.15385,0.01162
1538.66406,0.01811
1537.17427,0.01918
1535.68448,0.01157
1534.19470,0.02547
1532.70491,0.02771
1531.21512,0.03296
1529.72533,0.02517
1528.23554,0.03917
1526.74575,0.03034
1525.25597,0.04331
1523.76618,0.04596
1522.27639,0.05189
1520.78660,0.03772
1519.29681,0.05024
1517.80702,0.04509
1516.31724,0.04106
1514.82745,0.04739
1513.33766,0.05443
1511.84787,0.06149
1510.35808,0.05428
1508.86829,0.06615
1507.37850,0.06553
1505.88872,0.06139
1504.39893,0.08232
1502.90914,0.06925
1501.41935,0.07988
1499.92956,0.09162
1498.43977,0.08734
1496.94999,0.09940
1495.46020,0.08210
1493.97041,0.11217
1492.48062,0.13928
1490.99083,0.15389
1489.50104,0.14920
1488.01125,0.15569
1486.52147,0.16221
1485.03168,0.18263
1483.54189,0.20036
1482.05210,0.21702
1480.56231,0.24159
1479.07252,0.26402
1477.58274,0.29952
1476.09295,0.28880
1474.60316,0.30476
1473.11337,0.31884
1471.62358,0.31227
1470.13379,0.30246
1468.64401,0.31063
1467.15422,0.33297
1465.66443,0.34962
1464.17464,0.36630
1462.68485,0.39498
1461.19506,0.43320
1459.70527,0.46682
1458.21549,0.53966
1456.72570,0.59564
1455.23591,0.66825
1453.74612,0.72047
1452.25633,0.80538
1450.76654,0.81166
1449.27676,0.82069
1447.78697,0.81641
1446.29718,0.77623
1444.80739,0.75880
1443.31760,0.74139
1441.82781,0.68550
1440.33802,0.60705
1438.84824,0.58495
1437.35845,0.54437
1435.86866,0.53484
1434.37887,0.56561
1432.88908,0.61191
1431.39929,0.66178
1429.90951,0.75330
1428.41972,0.84512
1426.92993,0.87492
1425.44014,0.94775
1423.95035,0.96113
1422.46056,0.97454
1420.97078,1.00525
1419.48099,1.03898
1417.99120,1.05151
1416.50141,1.05400
1415.01162,1.01732
1413.52183,0.96080
1412.03204,0.87301
1410.54226,0.80566
1409.05247,0.75466
1407.56268,0.67810
1406.07289,0.62116
1404.58310,0.58451
1403.09331,0.54789
1401.60353,0.48585
1400.11374,0.43336
1398.62395,0.39205
1397.13416,0.34723
1395.64437,0.28311
1394.15458,0.23997
1392.66479,0.21454
1391.17501,0.18886
1389.68522,0.14280
1388.19543,0.10547
1386.70564,0.08952
1385.21585,0.07360
1383.72606,0.06682
1382.23628,0.03122
1380.74649,0.04926
1379.25670,0.03819
1377.76691,0.05491
1376.27712,0.04172
1374.78733,0.00516
1373.29755,0.02214
1371.80776,0.02119
1370.31797,0.01237
1368.82818,0.01024
1367.33839,0.00814
1365.84860,0.01409
1364.35881,0.02251
1362.86903,0.02306
1361.37924,0.02337
1359.88945,0.07023
1358.39966,0.09399
1356.90987,0.13111
1355.42008,0.17070
1353.93030,0.23371
1352.44051,0.26696
1350.95072,0.30022
1349.46093,0.39297
1347.97114,0.49391
1346.48135,0.55732
1344.99156,0.64987
1343.50178,0.68530
1342.01199,0.75885
1340.52220,0.79378
1339.03241,0.83092
1337.54262,0.90291
1336.05283,0.93751
1334.56305,0.97213
1333.07326,1.00147
1331.58347,0.96334
1330.09368,0.96552
1328.60389,0.94758
1327.11410,0.93864
1325.62432,0.92130
1324.13453,0.89636
1322.64474,0.84368
1321.15495,0.79539
1319.66516,0.77528
1318.17537,0.75520
1316.68558,0.68494
1315.19580,0.60571
1313.70601,0.55944
1312.21622,0.55810
1310.72643,0.52630
1309.23664,0.49235
1307.74685,0.46468
1306.25707,0.42806
1304.76728,0.40969
1303.27749,0.39134
1301.78770,0.34962
1300.29791,0.29568
1298.80812,0.26162
1297.31834,0.22487
1295.82855,0.18923
1294.33876,0.16668
1292.84897,0.12211
1291.35918,0.12056
1289.86939,0.11359
1288.37960,0.10665
1286.88982,0.10571
1285.40003,0.09963
1283.91024,0.08351
1282.42045,0.07993
1280.93066,0.06603
1279.44087,0.06467
1277.95109,0.05545
1276.46130,0.05441
1274.97151,0.05108
1273.48172,0.04778
1271.99193,0.04519
1270.50214,0.04697
1269.01235,0.03979
1267.52257,0.03564
1266.03278,0.03477
1264.54299,0.03474
1263.05320,0.02521
1261.56341,0.02320
1260.07362,0.02120
1258.58384,0.02780
1257.09405,0.00694
1255.60426,0.00516
1254.11447,0.02191
1252.62468,0.01800
1251.13489,0.02092
1249.64511,0.01788
1248.15532,0.00697
1246.66553,0.00737
1245.17574,0.00780
1243.68595,0.03806
1242.19616,0.01364
1240.70637,0.01373
1239.21659,0.01930
1237.72680,0.01509
1236.23701,0.02941
1234.74722,0.00973
1233.25743,0.00845
1231.76764,0.00720
1230.27786,0.00964
1228.78807,0.01864
1227.29828,0.02820
1225.80849,0.01766
1224.31870,0.01611
1222.82891,0.01732
1221.33912,0.02262
1219.84934,0.02183
1218.35955,0.02107
1216.86976,0.03216
1215.37997,0.03403
1213.89018,0.07511
1212.40039,0.05852
1210.91061,0.07461
1209.42082,0.07304
1207.93103,0.06577
1206.44124,0.05853
1204.95145,0.07118
1203.46166,0.06290
1201.97188,0.07451
1200.48209,0.06764
1198.99230,0.06270
1197.50251,0.05479
1196.01272,0.04255
1194.52293,0.04258
1193.03314,0.04263
1191.54336,0.04325
1190.05357,0.03982
1188.56378,0.02090
1187.07399,0.02894
1185.58420,0.02993
1184.09441,0.00944
1182.60463,0.00899
1181.11484,0.00855
1179.62505,0.00910
1178.13526,0.02953
1176.64547,0.02604
1175.15568,0.00516
1173.66589,0.02307
1172.17611,0.00618
1170.68632,0.00864
1169.19653,0.01111
1167.70674,0.02450
1166.21695,0.02458
1164.72716,0.01788
1163.23738,0.02998
1161.74759,0.04455
1160.25780,0.05153
1158.76801,0.06384
1157.27822,0.07617
1155.78843,0.08404
1154.29865,0.07968
1152.80886,0.09821
1151.31907,0.10860
1149.82928,0.10322
1148.33949,0.13870
1146.84970,0.14834
1145.35991,0.15801
1143.87013,0.16144
1142.38034,0.14259
1140.89055,0.16485
1139.40076,0.18577
1137.91097,0.20263
1136.42118,0.21734
1134.93140,0.21439
1133.44161,0.21146
1131.95182,0.23632
1130.46203,0.24704
1128.97224,0.24637
1127.48245,0.26911
1125.99266,0.24971
1124.50288,0.25590
1123.01309,0.24743
1121.52330,0.23898
1120.03351,0.23790
1118.54372,0.24774
1117.05393,0.26167
1115.56415,0.24216
1114.07436,0.24581
1112.58457,0.24390
1111.09478,0.24201
1109.60499,0.25362
1108.11520,0.25138
1106.62542,0.24099
1105.13563,0.24914
1103.64584,0.23635
1102.15605,0.23638
1100.66626,0.23317
1099.17647,0.22998
1097.68668,0.19852
1096.19690,0.21497
1094.70711,0.22274
1093.21732,0.22509
1091.72753,0.20243
1090.23774,0.20837
1088.74795,0.21433
1087.25817,0.19718
1085.76838,0.18115
1084.27859,0.17603
1082.78880,0.19433
1081.29901,0.20286
1079.80922,0.21849
1078.31943,0.22245
1076.82965,0.22642
1075.33986,0.22417
1073.85007,0.24425
1072.36028,0.24530
1070.87049,0.25128
1069.38070,0.27008
1067.89092,0.29583
1066.40113,0.32162
1064.91134,0.39545
1063.42155,0.51911
1061.93176,0.62919
1060.44197,0.70990
1058.95219,0.83635
1057.46240,0.87384
1055.97261,0.91136
1054.48282,1.03434
1052.99303,1.04905
1051.50324,1.03820
1050.01345,1.05268
1048.52367,1.07970
1047.03388,1.07015
1045.54409,1.06062
1044.05430,0.96635
1042.56451,0.89578
1041.07472,0.79938
1039.58494,0.74708
1038.09515,0.68583
1036.60536,0.63114
1035.11557,0.57647
1033.62578,0.51856
1032.13599,0.44680
1030.64620,0.38921
1029.15642,0.35559
1027.66663,0.31206
1026.17684,0.26856
1024.68705,0.23937
1023.19726,0.19006
1021.70747,0.19330
1020.21769,0.16473
1018.72790,0.15604
1017.23811,0.14752
1015.74832,0.13902
1014.25853,0.10809
1012.76874,0.08998
1011.27896,0.08821
1009.78917,0.08702
1008.29938,0.07333
1006.80959,0.06362
1005.31980,0.05392
1003.83001,0.03215
1002.34022,0.01883
1000.85044,0.02159
999.36065,0.05785
997.87086,0.05590
996.38107,0.05397
994.89128,0.07588
993.40149,0.08992
991.91171,0.12031
990.42192,0.12623
988.93213,0.15259
987.44234,0.15040
985.95255,0.14823
984.46276,0.14935
982.97297,0.12737
981.48319,0.12092
979.99340,0.10307
978.50361,0.09762
977.01382,0.09220
975.52403,0.08176
974.03424,0.05013
972.54446,0.03131
971.05467,0.00843
969.56488,0.01469
968.07509,0.01173
966.58530,0.00879
965.09551,0.01431
963.60573,0.01277
962.11594,0.01861
960.62615,0.00516
959.13636,0.01014
957.64657,0.01515
956.15678,0.01827
954.66699,0.02523
953.17721,0.03276
951.68742,0.05147
950.19763,0.06041
948.70784,0.06937
947.21805,0.08298
945.72826,0.07866
944.23848,0.08905
942.74869,0.09811
941.25890,0.10583
939.76911,0.12324
938.27932,0.14067
936.78953,0.15418
935.29974,0.19302
933.80996,0.21610
932.32017,0.22996
930.83038,0.24275
929.34059,0.25556
927.85080,0.27493
926.36101,0.30031
924.87123,0.34558
923.38144,0.41672
921.89165,0.46218
920.40186,0.50765
918.91207,0.60364
917.42228,0.74019
915.93250,0.91214
914.44271,1.13664
912.95292,1.21816
911.46313,1.29970
909.97334,1.54414
908.48355,1.82506
906.99376,1.95144
905.50398,1.99294
904.01419,1.98277
902.52440,1.97261
901.03461,1.99840
899.54482,2.00000
898.05503,1.90964
896.56525,1.70774
895.07546,1.57593
893.58567,1.44414
892.09588,1.14870
890.60609,0.90226
889.11630,0.68115
887.62651,0.51313
886.13673,0.45821
884.64694,0.40331
883.15715,0.27618
881.66736,0.21711
880.17757,0.15181
878.68778,0.13170
877.19800,0.11162
875.70821,0.09700
874.21842,0.05519
872.72863,0.03301
871.23884,0.02935
869.74905,0.03075
868.25927,0.03217
866.76948,0.01035
865.27969,0.03237
863.78990,0.05006
862.30011,0.06450
860.81032,0.07462
859.32053,0.08476
857.83075,0.08785
856.34096,0.10538
854.85117,0.11587
853.36138,0.13998
851.87159,0.14317
850.38180,0.14638
848.89202,0.15397
847.40223,0.17845
845.91244,0.22664
844.42265,0.23811
842.93286,0.24960
841.44307,0.26357
839.95329,0.27838
838.46350,0.27525
836.97371,0.28140
835.48392,0.29941
833.99413,0.31745
832.50434,0.28258
831.01455,0.29100
829.52477,0.27741
828.03498,0.23771
826.54519,0.21913
825.05540,0.20057
823.56561,0.17238
822.07582,0.15809
820.58604,0.15498
819.09625,0.15625
817.60646,0.15754
816.11667,0.14335
814.62688,0.15449
813.13709,0.14306
811.64730,0.14309
810.15752,0.15008
808.66773,0.15710
807.17794,0.15829
805.68815,0.16005
804.19836,0.18823
802.70857,0.18650
801.21879,0.18479
799.72900,0.16814
798.23921,0.14989
796.74942,0.14744
795.25963,0.14297
793.76984,0.13853
792.28006,0.16254
790.79027,0.19448
789.30048,0.21827
787.81069,0.21597
786.32090,0.22757
784.83111,0.23919
783.34132,0.26526
781.85154,0.33489
780.36175,0.37407
778.87196,0.39817
777.38217,0.42229
775.89238,0.41555
774.40259,0.42653
772.91281,0.39970
771.42302,0.38855
769.93323,0.37742
768.44344,0.32644
766.95365,0.28039
765.46386,0.24552
763.97407,0.19054
762.48429,0.16851
760.99450,0.14650
759.50471,0.13295
758.01492,0.12052
756.52513,0.10457
755.03534,0.09980
753.54556,0.09506
752.05577,0.08463
750.56598,0.08266
749.07619,0.05540
747.58640,0.04967
746.09661,0.04396
744.60683,0.04045
743.11704,0.03125
741.62725,0.02452
740.13746,0.01483
738.64767,0.00516
737.15788,0.00845
735.66809,0.00904
734.17831,0.00966
732.68852,0.01016
731.19873,0.01069
729.70894,0.02064
728.21915,0.03387
726.72936,0.01066
725.23958,0.01659
723.74979,0.01316
722.26000,0.00976
720.77021,0.00624
719.28042,0.01589
717.79063,0.00516
716.30084,0.00850
714.81106,0.01187
713.32127,0.02588
711.83148,0.02958
710.34169,0.04635
708.85190,0.03799
707.36211,0.02964
705.87233,0.03370
704.38254,0.05384
702.89275,0.04516
701.40296,0.04739
699.91317,0.04964
698.42338,0.06444
696.93360,0.06647
695.44381,0.09954
693.95402,0.10774
692.46423,0.11597
690.97444,0.14177
689.48465,0.14501
687.99486,0.15643
686.50508,0.18067
685.01529,0.20494
683.52550,0.22678
682.03571,0.23857
680.54592,0.26237
679.05613,0.26455
677.56635,0.26676
676.07656,0.24654
674.58677,0.21791
673.09698,0.21706
671.60719,0.20997
670.11740,0.20291
668.62761,0.17737
667.13783,0.17907
665.64804,0.16025
664.15825,0.14145
662.66846,0.13505
661.17867,0.09439
659.68888,0.08151
658.19910,0.07370
656.70931,0.06590
655.21952,0.04874
653.72973,0.04630
652.23994,0.04606
650.75015,0.04068
649.26037,0.03532
647.77058,0.04086
646.28079,0.04344
644.79100,0.04142
643.30121,0.04786
641.81142,0.05432
640.32163,0.06788
638.83185,0.03956
637.34206,0.03738
635.85227,0.02653
634.36248,0.01569
632.87269,0.00516
631.38290,0.02010
629.89312,0.01357
628.40333,0.01305
626.91354,0.01256
625.42375,0.01100
623.93396,0.00185
622.44417,0.00763
620.95438,0.01344
619.46460,0.04308
617.97481,0.06186
616.48502,0.09073
614.99523,0.09187
613.50544,0.09303
612.01565,0.13069
610.52587,0.16728
609.03608,0.20607
607.54629,0.23236
606.05650,0.25868
604.56671,0.27904
603.07692,0.33970
601.58714,0.36596
600.09735,0.39224
598.60756,0.41868
597.11777,0.46038
595.62798,0.46211
594.13819,0.44835
592.64840,0.43461
591.15862,0.40729
589.66883,0.34217
588.17904,0.27926
586.68925,0.24126
585.19946,0.20329
583.70967,0.16630
582.21989,0.13314
580.73010,0.12191
579.24031,0.11070
577.75052,0.09829
576.26073,0.07448
574.77094,0.04825
573.28115,0.04517
571.79137,0.04211
570.30158,0.07010
568.81179,0.08342
567.32200,0.09418
565.83221,0.10496
564.34242,0.12107
562.85264,0.13421
561.36285,0.17133
559.87306,0.16547
558.38327,0.15964
556.89348,0.17424
555.40369,0.19349
553.91391,0.20161
552.42412,0.20975
550.93433,0.21683
549.44454,0.21305
547.95475,0.22453
546.46496,0.23141
544.97517,0.23831
543.48539,0.27463
541.99560,0.28838
540.50581,0.29862
539.01602,0.30888
537.52623,0.37741
536.03644,0.43915
534.54666,0.45602
533.05687,0.47468
531.56708,0.49337
530.07729,0.51249
528.58750,0.54442
527.09771,0.57706
525.60792,0.60972
524.11814,0.70404
522.62835,0.75593
521.13856,0.80840
519.64877,0.83176
518.15898,0.85516
516.66919,0.88483
515.17941,0.89331
513.68962,0.87296
512.19983,0.85264
510.71004,0.82826
509.22025,0.81669
507.73046,0.77549
506.24068,0.70669
504.75089,0.63792
503.26110,0.53039
501.77131,0.37063
500.28152,0.33486
498.79173,0.29910
497.30194,0.23630
495.81216,0.19720
494.32237,0.17676
492.83258,0.15634
491.34279,0.12302
489.85300,0.10742
488.36321,0.09156
486.87343,0.09465
485.38364,0.09775
483.89385,0.12960
482.40406,0.10976
480.91427,0.11443
479.42448,0.11913
477.93469,0.12903
476.44491,0.15773
474.95512,0.19325
473.46533,0.22880
471.97554,0.24940
470.48575,0.24010
468.99596,0.24225
467.50618,0.22646
466.01639,0.21070
464.52660,0.16775
463.03681,0.11557
461.54702,0.09362
460.05723,0.07169
458.56745,0.03510
457.07766,0.04969
455.58787,0.04648
454.09808,0.04329
452.60829,0.00516
451.11850,0.01998
449.62871,0.02150
448.13893,0.02304
446.64914,0.02351
445.15935,0.00550
443.66956,0.00739
442.17977,0.01624
440.68998,0.02511
439.20020,0.05156
437.71041,0.04156
436.22062,0.04139
434.73083,0.04124
433.24104,0.05364
431.75125,0.03694
430.26146,0.03632
428.77168,0.03572
427.28189,0.01964
425.79210,0.01147
424.30231,0.02796
422.81252,0.04447
421.32273,0.02957
419.83295,0.03810
418.34316,0.03999
416.85337,0.04190
415.36358,0.01703
413.87379,0.01232
412.38400,0.00873
410.89422,0.00516
409.40443,0.00785
407.91464,0.02282
406.42485,0.02638
404.93506,0.02778
403.44527,0.02922
401.95548,0.02605
400.46570,0.01855
398.97591,0.01352
397.48612,0.00852
395.99633,0.00000
394.50654,0.00942
393.01675,0.02717
391.52697,0.04494
390.03718,0.02640
388.54739,0.02286
387.05760,0.01716
385.56781,0.01149
384.07802,0.01798
382.58824,0.00626
381.09845,0.01117
379.60866,0.01610
378.11887,0.01071
376.62908,0.00372
375.13929,0.00504
373.64950,0.00638
372.15972,0.02802
370.66993,0.01948
369.18014,0.02246
367.69035,0.02547
366.20056,0.02877
364.71077,0.00516
363.22099,0.01120
361.73120,0.01727
360.24141,0.02895
358.75162,0.03547
357.26183,0.04053
355.77204,0.04561
354.28225,0.01520
352.79247,0.04468
351.30268,0.06112
349.81289,0.07759
348.32310,0.06497
346.83331,0.05073
345.34352,0.04387
343.85374,0.03703
342.36395,0.01688
340.87416,0.01527
339.38437,0.01966
337.89458,0.02407
336.40479,0.02770
334.91501,0.02155
333.42522,0.01570
331.93543,0.00987
330.44564,0.00516
328.95585,0.00826
327.46606,0.01153
325.97627,0.01482
324.48649,0.00548
322.99670,0.03698
321.50691,0.04932
320.01712,0.06168
318.52733,0.08999
317.03754,0.06416
315.54776,0.06136
314.05797,0.05858
312.56818,0.06576
311.07839,0.05445
309.58860,0.05528
308.09881,0.05614
306.60902,0.06287
305.11924,0.05057
303.62945,0.02918
302.13966,0.00782
300.64987,0.00516
299.16008,0.00516
