1778.52000,0.01089
1777.03021,0.00120
1775.54042,0.01080
1774.05063,0.01932
1772.56085,0.01549
1771.07106,0.02076
1769.58127,0.01339
1768.09148,-0.00000
1766.60169,0.00149
1765.11190,0.00714
1763.62212,0.00621
1762.13233,0.01879
1760.64254,0.02451
1759.15275,0.01402
1757.66296,0.00576
1756.17317,0.00247
1754.68339,0.00885
1753.19360,0.00561
1751.70381,0.00626
1750.21402,0.00528
1748.72423,0.01733
1747.23444,0.00739
1745.74465,0.01262
1744.25487,0.00851
1742.76508,0.01628
1741.27529,0.01665
1739.78550,0.01787
1738.29571,0.02187
1736.80592,0.02259
1735.31614,0.01949
1733.82635,0.01750
1732.33656,0.00179
1730.84677,0.01494
1729.35698,0.01408
1727.86719,0.00443
1726.37740,0.01635
1724.88762,0.01782
1723.39783,0.02483
1721.90804,0.01893
1720.41825,0.01250
1718.92846,0.00802
1717.43867,0.00873
1715.94889,0.01237
1714.45910,0.02924
1712.96931,0.01448
1711.47952,0.02150
1709.98973,0.02688
1708.49994,0.01991
1707.01016,0.01351
1705.52037,0.00714
1704.03058,0.01786
1702.54079,0.00576
1701.05100,0.00750
1699.56121,0.02359
1698.07142,0.01603
1696.58164,0.02253
1695.09185,0.02878
1693.60206,0.03092
1692.11227,0.03310
1690.62248,0.04355
1689.13269,0.04165
1687.64291,0.03591
1686.15312,0.04810
1684.66333,0.04957
1683.17354,0.04832
1681.68375,0.05920
1680.19396,0.04919
1678.70417,0.05213
1677.21439,0.05126
1675.72460,0.05756
1674.23481,0.06196
1672.74502,0.06033
1671.25523,0.07662
1669.76544,0.07422
1668.27566,0.08450
1666.78587,0.09095
1665.29608,0.08285
1663.80629,0.08440
1662.31650,0.09368
1660.82671,0.09500
1659.33693,0.12223
1657.84714,0.11645
1656.35735,0.12280
1654.86756,0.08652
1653.37777,0.09100
1651.88798,0.10706
1650.39819,0.11269
1648.90841,0.09083
1647.41862,0.08412
1645.92883,0.08694
1644.43904,0.08978
1642.94925,0.08040
1641.45946,0.07847
1639.96968,0.07987
1638.47989,0.09286
1636.99010,0.09899
1635.50031,0.10350
1634.01052,0.08546
1632.52073,0.09305
1631.03094,0.09102
1629.54116,0.09838
1628.05137,0.11457
1626.56158,0.11290
1625.07179,0.11070
1623.58200,0.11156
1622.09221,0.09619
1620.60243,0.10866
1619.11264,0.11564
1617.62285,0.11220
1616.13306,0.07712
1614.64327,0.09794
1613.15348,0.08851
1611.66370,0.10361
1610.17391,0.10138
1608.68412,0.11267
1607.19433,0.08518
1605.70454,0.10230
1604.21475,0.10307
1602.72496,0.10386
1601.23518,0.10757
1599.74539,0.10800
1598.25560,0.08837
1596.76581,0.10454
1595.27602,0.08881
1593.78623,0.08631
1592.29645,0.08907
1590.80666,0.08057
1589.31687,0.08641
1587.82708,0.08511
1586.33729,0.07366
1584.84750,0.08866
1583.35771,0.08551
1581.86793,0.07716
1580.37814,0.08700
1578.88835,0.07705
1577.39856,0.08144
1575.90877,0.06686
1574.41898,0.05754
1572.92920,0.05539
1571.43941,0.04282
1569.94962,0.04293
1568.45983,0.04306
1566.97004,0.04542
1565.48025,0.01038
1563.99047,0.01719
1562.50068,0.01110
1561.01089,0.02182
1559.52110,0.03229
1558.03131,0.01168
1556.54152,0.03348
1555.05173,0.02862
1553.56195,0.02515
1552.07216,0.01895
1550.58237,0.01967
1549.09258,0.01682
1547.60279,0.00850
1546.11300,0.00737
1544.62322,0.00102
1543.13343,0.00723
1541.64364,0.00520
1540.15385,0.00513
1538.66406,0.00508
1537.17427,0.00918
1535.68448,0.01001
1534.19470,0.00618
1532.70491,0.01354
1531.21512,0.02092
1529.72533,0.00576
1528.23554,0.01390
1526.74575,0.02152
1525.25597,0.04292
1523.76618,0.03820
1522.27639,0.03048
1520.78660,0.04041
1519.29681,0.03439
1517.80702,0.02344
1516.31724,0.02600
1514.82745,0.04924
1513.33766,0.04896
1511.84787,0.04871
1510.35808,0.03872
1508.86829,0.03618
1507.37850,0.03972
1505.88872,0.04301
1504.39893,0.03724
1502.90914,0.06261
1501.41935,0.06267
1499.92956,0.06937
1498.43977,0.08434
1496.94999,0.09054
1495.46020,0.09731
1493.97041,0.11016
1492.48062,0.12827
1490.99083,0.13291
1489.50104,0.14418
1488.01125,0.14021
1486.52147,0.13626
1485.03168,0.18009
1483.54189,0.19807
1482.05210,0.20534
1480.56231,0.24264
1479.07252,0.28877
1477.58274,0.30218
1476.09295,0.30239
1474.60316,0.30869
1473.11337,0.33401
1471.62358,0.33595
1470.13379,0.34122
1468.64401,0.32588
1467.15422,0.34716
1465.66443,0.37384
1464.17464,0.40055
1462.68485,0.43209
1461.19506,0.48761
1459.70527,0.50765
1458.21549,0.57009
1456.72570,0.65596
1455.23591,0.68406
1453.74612,0.80053
1452.25633,0.84106
1450.76654,0.85960
1449.27676,0.87320
1447.78697,0.83812
1446.29718,0.83471
1444.80739,0.80256
1443.31760,0.77044
1441.82781,0.73326
1440.33802,0.64627
1438.84824,0.59015
1437.35845,0.53845
1435.86866,0.51760
1434.37887,0.57715
1432.88908,0.60672
1431.39929,0.67953
1429.90951,0.75842
1428.41972,0.83018
1426.92993,0.90720
1425.44014,0.94873
1423.95035,0.95644
1422.46056,0.96417
1420.97078,1.01403
1419.48099,1.02814
1417.99120,1.03622
1416.50141,1.06772
1415.01162,1.02356
1413.52183,0.97419
1412.03204,0.90640
1410.54226,0.83424
1409.05247,0.72494
1407.56268,0.66907
1406.07289,0.61184
1404.58310,0.57363
1403.09331,0.53545
1401.60353,0.48711
1400.11374,0.43053
1398.62395,0.37536
1397.13416,0.32902
1395.64437,0.29757
1394.15458,0.25045
1392.66479,0.19951
1391.17501,0.16070
1389.68522,0.14476
1388.19543,0.10242
1386.70564,0.09438
1385.21585,0.08636
1383.72606,0.06557
1382.23628,0.04618
1380.74649,0.03315
1379.25670,0.03803
1377.76691,0.03798
1376.27712,0.03163
1374.78733,0.01319
1373.29755,0.01597
1371.80776,0.02015
1370.31797,0.02188
1368.82818,0.02653
1367.33839,0.03120
1365.84860,0.00576
1364.35881,0.02491
1362.86903,0.04574
1361.37924,0.05971
1359.88945,0.08417
1358.39966,0.10673
1356.90987,0.15463
1355.42008,0.20614
1353.93030,0.24694
1352.44051,0.28501
1350.95072,0.32311
1349.46093,0.42674
1347.97114,0.50480
1346.48135,0.61205
1344.99156,0.67915
1343.50178,0.74600
1342.01199,0.74929
1340.52220,0.79307
1339.03241,0.86082
1337.54262,0.91786
1336.05283,0.95290
1334.56305,0.98797
1333.07326,1.00490
1331.58347,0.99654
1330.09368,0.99177
1328.60389,0.96336
1327.11410,0.94269
1325.62432,0.95231
1324.13453,0.91132
1322.64474,0.88521
1321.15495,0.81839
1319.66516,0.79509
1318.17537,0.77181
1316.68558,0.68993
1315.19580,0.60807
1313.70601,0.56891
1312.21622,0.56004
1310.72643,0.52918
1309.23664,0.50165
1307.74685,0.45928
1306.25707,0.43373
1304.76728,0.40379
1303.27749,0.37388
1301.78770,0.33767
1300.29791,0.30781
1298.80812,0.26670
1297.31834,0.20193
1295.82855,0.18784
1294.33876,0.14762
1292.84897,0.11982
1291.35918,0.12479
1289.86939,0.11149
1288.37960,0.09821
1286.88982,0.10464
1285.40003,0.10971
1283.91024,0.08894
1282.42045,0.07782
1280.93066,0.07059
1279.44087,0.06778
1277.95109,0.08427
1276.46130,0.06857
1274.97151,0.05538
1273.48172,0.04222
1271.99193,0.03844
1270.50214,0.03743
1269.01235,0.04857
1267.52257,0.02917
1266.03278,0.02659
1264.54299,0.01716
1263.05320,0.05041
1261.56341,0.04309
1260.07362,0.03579
1258.58384,0.02425
1257.09405,0.01137
1255.60426,0.00896
1254.11447,0.03163
1252.62468,0.02487
1251.13489,0.00576
1249.64511,0.00983
1248.15532,0.00897
1246.66553,0.01543
1245.17574,0.02191
1243.68595,0.02911
1242.19616,0.02092
1240.70637,0.03395
1239.21659,0.04040
1237.72680,0.04467
1236.23701,0.00576
1234.74722,0.01539
1233.25743,0.01680
1231.76764,0.01823
1230.27786,0.02051
1228.78807,0.02365
1227.29828,0.02322
1225.80849,0.02944
1224.31870,0.01283
1222.82891,0.02377
1221.33912,0.04409
1219.84934,0.04875
1218.35955,0.05344
1216.86976,0.03640
1215.37997,0.05765
1213.89018,0.06406
1212.40039,0.07959
1210.91061,0.08825
1209.42082,0.10355
1207.93103,0.09437
1206.44124,0.08522
1204.95145,0.09839
1203.46166,0.08241
1201.97188,0.07581
1200.48209,0.07859
1198.99230,0.07755
1197.50251,0.04378
1196.01272,0.06481
1194.52293,0.05792
1193.03314,0.05106
1191.54336,0.03969
1190.05357,0.03302
1188.56378,0.04151
1187.07399,0.02195
1185.58420,0.02884
1184.09441,0.00576
1182.60463,0.01069
1181.11484,0.01565
1179.62505,0.01885
1178.13526,0.03996
1176.64547,0.02999
1175.15568,0.03189
1173.66589,0.01812
1172.17611,0.00576
1170.68632,0.00767
1169.19653,0.00962
1167.70674,0.03650
1166.21695,0.04992
1164.72716,0.05015
1163.23738,0.04380
1161.74759,0.05399
1160.25780,0.05649
1158.76801,0.06288
1157.27822,0.06929
1155.78843,0.08096
1154.29865,0.09898
1152.80886,0.09914
1151.31907,0.12354
1149.82928,0.11990
1148.33949,0.13141
1146.84970,0.13731
1145.35991,0.14324
1143.87013,0.16171
1142.38034,0.16673
1140.89055,0.18002
1139.40076,0.18563
1137.91097,0.21715
1136.42118,0.22666
1134.93140,0.23221
1133.44161,0.23779
1131.95182,0.25454
1130.46203,0.25012
1128.97224,0.30105
1127.48245,0.31429
1125.99266,0.29784
1124.50288,0.28554
1123.01309,0.28207
1121.52330,0.27863
1120.03351,0.28072
1118.54372,0.27485
1117.05393,0.28194
1115.56415,0.29594
1114.07436,0.29344
1112.58457,0.27323
1111.09478,0.25303
1109.60499,0.27209
1108.11520,0.27410
1106.62542,0.27559
1105.13563,0.25976
1103.64584,0.26901
1102.15605,0.24194
1100.66626,0.24353
1099.17647,0.24515
1097.68668,0.24376
1096.19690,0.21872
1094.70711,0.23418
1093.21732,0.24497
1091.72753,0.22910
1090.23774,0.24408
1088.74795,0.25908
1087.25817,0.23034
1085.76838,0.21704
1084.27859,0.22744
1082.78880,0.20621
1081.29901,0.23510
1079.80922,0.23594
1078.31943,0.24837
1076.82965,0.26082
1075.33986,0.26752
1073.85007,0.28139
1072.36028,0.28869
1070.87049,0.30812
1069.38070,0.30033
1067.89092,0.31720
1066.40113,0.33410
1064.91134,0.42684
1063.42155,0.56999
1061.93176,0.69499
1060.44197,0.78093
1058.95219,0.88644
1057.46240,0.94009
1055.97261,0.99377
1054.48282,1.04486
1052.99303,1.11524
1051.50324,1.11821
1050.01345,1.11542
1048.52367,1.15863
1047.03388,1.14778
1045.54409,1.13695
1044.05430,1.05554
1042.56451,0.93591
1041.07472,0.84712
1039.58494,0.79690
1038.09515,0.72193
1036.60536,0.68827
1035.11557,0.65463
1033.62578,0.55056
1032.13599,0.45918
1030.64620,0.43938
1029.15642,0.37667
1027.66663,0.34509
1026.17684,0.31353
1024.68705,0.25778
1023.19726,0.20150
1021.70747,0.21516
1020.21769,0.16113
1018.72790,0.18254
1017.23811,0.17660
1015.74832,0.17068
1014.25853,0.14620
1012.76874,0.14818
1011.27896,0.16807
1009.78917,0.15413
1008.29938,0.12865
1006.80959,0.10458
1005.31980,0.08053
1003.83001,0.03944
1002.34022,0.04077
1000.85044,0.07184
999.36065,0.07955
997.87086,0.08219
996.38107,0.08485
994.89128,0.09126
993.40149,0.11943
991.91171,0.13992
990.42192,0.15218
988.93213,0.15566
987.44234,0.16481
985.95255,0.17398
984.46276,0.17588
982.97297,0.14643
981.48319,0.13214
979.99340,0.11127
978.50361,0.10901
977.01382,0.10677
975.52403,0.08928
974.03424,0.07237
972.54446,0.04199
971.05467,0.03917
969.56488,0.00582
968.07509,0.00957
966.58530,0.01336
965.09551,0.01923
963.60573,0.01026
962.11594,0.02444
960.62615,0.01608
959.13636,0.01090
957.64657,0.00576
956.15678,0.02416
954.66699,0.03598
953.17721,0.04452
951.68742,0.04290
950.19763,0.05576
948.70784,0.06864
947.21805,0.08857
945.72826,0.09696
944.23848,0.08281
942.74869,0.11713
941.25890,0.12394
939.76911,0.12886
938.27932,0.13380
936.78953,0.15858
935.29974,0.20293
933.80996,0.23547
932.32017,0.24161
930.83038,0.23925
929.34059,0.23691
927.85080,0.26735
926.36101,0.28955
924.87123,0.32527
923.38144,0.38386
921.89165,0.43780
920.40186,0.49176
918.91207,0.60574
917.42228,0.72031
915.93250,0.88609
914.44271,1.12236
912.95292,1.19971
911.46313,1.27708
909.97334,1.53159
908.48355,1.76934
906.99376,1.93637
905.50398,1.98839
904.01419,1.99418
902.52440,2.00000
901.03461,1.95603
899.54482,1.95116
898.05503,1.86375
896.56525,1.67618
895.07546,1.54657
893.58567,1.41698
892.09588,1.10645
890.60609,0.88704
889.11630,0.69574
887.62651,0.51850
886.13673,0.46088
884.64694,0.40329
883.15715,0.28392
881.66736,0.20532
880.17757,0.16087
878.68778,0.15031
877.19800,0.13976
875.70821,0.08769
874.21842,0.05463
872.72863,0.04471
871.23884,0.02106
869.74905,0.01339
868.25927,0.00576
866.76948,0.01338
865.27969,0.03919
863.78990,0.06613
862.30011,0.07988
860.81032,0.08554
859.32053,0.09122
857.83075,0.07780
856.34096,0.11037
854.85117,0.11434
853.36138,0.12769
851.87159,0.12428
850.38180,0.12090
848.89202,0.16515
847.40223,0.18383
845.91244,0.23392
844.42265,0.24206
842.93286,0.25022
841.44307,0.25001
839.95329,0.29717
838.46350,0.28215
836.97371,0.27872
835.48392,0.28274
833.99413,0.28678
832.50434,0.28370
831.01455,0.29000
829.52477,0.28091
828.03498,0.23799
826.54519,0.21918
825.05540,0.20040
823.56561,0.16554
822.07582,0.15712
820.58604,0.16195
819.09625,0.15909
817.60646,0.15626
816.11667,0.14822
814.62688,0.13498
813.13709,0.13470
811.64730,0.12399
810.15752,0.12527
808.66773,0.12658
807.17794,0.14182
805.68815,0.14469
804.19836,0.15282
802.70857,0.16001
801.21879,0.16722
799.72900,0.16277
798.23921,0.14540
796.74942,0.12448
795.25963,0.12959
793.76984,0.13473
792.28006,0.15462
790.79027,0.18665
789.30048,0.19090
787.81069,0.22105
786.32090,0.22838
784.83111,0.23574
783.34132,0.25881
781.85154,0.31355
780.36175,0.40521
778.87196,0.41294
777.38217,0.42070
775.89238,0.45820
774.40259,0.46739
772.91281,0.44191
771.42302,0.42679
769.93323,0.41169
768.44344,0.36207
766.95365,0.29459
765.46386,0.27474
763.97407,0.23181
762.48429,0.20403
760.99450,0.17629
759.50471,0.14829
758.01492,0.12499
756.52513,0.10118
755.03534,0.10353
753.54556,0.10591
752.05577,0.09951
750.56598,0.08735
749.07619,0.07384
747.58640,0.06311
746.09661,0.05240
744.60683,0.03869
743.11704,0.04675
741.62725,0.01410
740.13746,0.01574
738.64767,0.01741
737.15788,0.00576
735.66809,0.02813
734.17831,0.00952
732.68852,0.00717
731.19873,0.00485
729.70894,0.02194
728.21915,0.03465
726.72936,0.02565
725.23958,0.01997
723.74979,0.01761
722.26000,0.01529
720.77021,0.01244
719.28042,0.00576
717.79063,0.02045
716.30084,0.01550
714.81106,0.01057
713.32127,0.02507
711.83148,0.03243
710.34169,0.05359
708.85190,0.04463
707.36211,0.03569
705.87233,0.05748
704.38254,0.05203
702.89275,0.07634
701.40296,0.06379
699.91317,0.05127
698.42338,0.05584
696.93360,0.06758
695.44381,0.12202
693.95402,0.12473
692.46423,0.12748
690.97444,0.12446
689.48465,0.14514
687.99486,0.17108
686.50508,0.19181
685.01529,0.21257
683.52550,0.23638
682.03571,0.27315
680.54592,0.30141
679.05613,0.28952
677.56635,0.27765
676.07656,0.26415
674.58677,0.25536
673.09698,0.23476
671.60719,0.21941
670.11740,0.20409
668.62761,0.19842
667.13783,0.18150
665.64804,0.16763
664.15825,0.15378
662.66846,0.14601
661.17867,0.12341
659.68888,0.08817
658.19910,0.07594
656.70931,0.06373
655.21952,0.05665
653.72973,0.05729
652.23994,0.04227
650.75015,0.03402
649.26037,0.02579
647.77058,0.05296
646.28079,0.05345
644.79100,0.02700
643.30121,0.03607
641.81142,0.04517
640.32163,0.05237
638.83185,0.06042
637.34206,0.04621
635.85227,0.03766
634.36248,0.02913
632.87269,0.01113
631.38290,0.01931
629.89312,0.03467
628.40333,0.02803
626.91354,0.02142
625.42375,0.00576
623.93396,0.01337
622.44417,0.01303
620.95438,0.01271
619.46460,0.01820
617.97481,0.05730
616.48502,0.09889
614.99523,0.10542
613.50544,0.11197
612.01565,0.13217
610.52587,0.16699
609.03608,0.21394
607.54629,0.22748
606.05650,0.24104
604.56671,0.32412
603.07692,0.37750
601.58714,0.40751
600.09735,0.43755
598.60756,0.47229
597.11777,0.48146
595.62798,0.49286
594.13819,0.47043
592.64840,0.44802
591.15862,0.44573
589.66883,0.37218
588.17904,0.31654
586.68925,0.26987
585.19946,0.22323
583.70967,0.17208
582.21989,0.18480
580.73010,0.14773
579.24031,0.11069
577.75052,0.11083
576.26073,0.10411
574.77094,0.08861
573.28115,0.07960
571.79137,0.07062
570.30158,0.08657
568.81179,0.11246
567.32200,0.12860
565.83221,0.14477
564.34242,0.17514
562.85264,0.15241
561.36285,0.20071
559.87306,0.19827
558.38327,0.19584
556.89348,0.19909
555.40369,0.21997
553.91391,0.22478
552.42412,0.22961
550.93433,0.26874
549.44454,0.25945
547.95475,0.26642
546.46496,0.27617
544.97517,0.28594
543.48539,0.29602
541.99560,0.33062
540.50581,0.33785
539.01602,0.34512
537.52623,0.38227
536.03644,0.45082
534.54666,0.47288
533.05687,0.50048
531.56708,0.52809
530.07729,0.57308
528.58750,0.60019
527.09771,0.60821
525.60792,0.61625
524.11814,0.73730
522.62835,0.76644
521.13856,0.83607
519.64877,0.86527
518.15898,0.89449
516.66919,0.90392
515.17941,0.93264
513.68962,0.91900
512.19983,0.90538
510.71004,0.84583
509.22025,0.82483
507.73046,0.76505
506.24068,0.72401
504.75089,0.68299
503.26110,0.53273
501.77131,0.42599
500.28152,0.38518
498.79173,0.34441
497.30194,0.24544
495.81216,0.19907
494.32237,0.19264
492.83258,0.18623
491.34279,0.16113
489.85300,0.10991
488.36321,0.10909
486.87343,0.11613
485.38364,0.12320
483.89385,0.11308
482.40406,0.12034
480.91427,0.11482
479.42448,0.10933
477.93469,0.16373
476.44491,0.19916
474.95512,0.21425
473.46533,0.22936
471.97554,0.21670
470.48575,0.27948
468.99596,0.25228
467.50618,0.23997
466.01639,0.22768
464.52660,0.17414
463.03681,0.12860
461.54702,0.11061
460.05723,0.09265
458.56745,0.06865
457.07766,0.05211
455.58787,0.04276
454.09808,0.03343
452.60829,0.03871
451.11850,0.00576
449.62871,0.01772
448.13893,0.02971
446.64914,0.03580
445.15935,0.01192
443.66956,0.02440
442.17977,0.03704
440.68998,0.04970
439.20020,0.02675
437.71041,0.04291
436.22062,0.04409
434.73083,0.04529
433.24104,0.05684
431.75125,0.03897
430.26146,0.03956
428.77168,0.04018
427.28189,0.03284
425.79210,0.05636
424.30231,0.05388
422.81252,0.05144
421.32273,0.06044
419.83295,0.03809
418.34316,0.04755
416.85337,0.05704
415.36358,0.04825
413.87379,0.02931
412.38400,0.02525
410.89422,0.02121
409.40443,0.02298
407.91464,0.03882
406.42485,0.02082
404.93506,0.02281
403.44527,0.02482
401.95548,0.03249
400.46570,0.02451
398.97591,0.01655
397.48612,0.00861
395.99633,0.02354
394.50654,0.01153
393.01675,0.02239
391.52697,0.03327
390.03718,0.04115
388.54739,0.02675
387.05760,0.01624
385.56781,0.00576
384.07802,0.01893
382.58824,0.02498
381.09845,0.02210
379.60866,0.01926
378.11887,0.01464
376.62908,0.02547
375.13929,0.01389
373.64950,0.00233
372.15972,0.04021
370.66993,0.04921
369.18014,0.03277
367.69035,0.01636
366.20056,0.02261
364.71077,0.00576
363.22099,0.02580
361.73120,0.04587
360.24141,0.03417
358.75162,0.03351
357.26183,0.04787
355.77204,0.06226
354.28225,0.02369
352.79247,0.03001
351.30268,0.06677
349.81289,0.10355
348.32310,0.06041
346.83331,0.07756
345.34352,0.06323
343.85374,0.04892
342.36395,0.03422
340.87416,0.03771
339.38437,0.03752
337.89458,0.03734
336.40479,0.04201
334.91501,0.01643
333.42522,0.01730
331.93543,0.01819
330.44564,0.01250
328.95585,0.02060
327.46606,0.03258
325.97627,0.04458
324.48649,0.00597
322.99670,0.04921
321.50691,0.04527
320.01712,0.04136
318.52733,0.09486
317.03754,0.09995
315.54776,0.10107
314.05797,0.10221
312.56818,0.07159
311.07839,0.04623
309.58860,0.04345
308.09881,0.04071
306.60902,0.04707
305.11924,0.07740
303.62945,0.04157
302.13966,0.00576
300.64987,0.04263
299.16008,0.00576
