1778.52000,0.01020
1777.03021,0.00353
1775.54042,0.01159
1774.05063,0.01661
1772.56085,0.01638
1771.07106,0.01552
1769.58127,0.01511
1768.09148,0.02067
1766.60169,0.01482
1765.11190,0.01405
1763.62212,0.01155
1762.13233,0.02268
1760.64254,0.01715
1759.15275,0.01560
1757.66296,0.01560
1756.17317,0.01475
1754.68339,0.01678
1753.19360,0.01664
1751.70381,0.01938
1750.21402,0.01687
1748.72423,0.01416
1747.23444,0.01148
1745.74465,0.01704
1744.25487,0.02394
1742.76508,0.02296
1741.27529,0.02267
1739.78550,0.01537
1738.29571,0.02148
1736.80592,0.02521
1735.31614,0.01754
1733.82635,0.01363
1732.33656,0.01194
1730.84677,0.00961
1729.35698,0.02114
1727.86719,0.02303
1726.37740,0.02693
1724.88762,0.02008
1723.39783,0.01721
1721.90804,0.01964
1720.41825,0.02011
1718.92846,0.00326
1717.43867,0.01498
1715.94889,0.01377
1714.45910,0.01565
1712.96931,0.00658
1711.47952,0.02208
1709.98973,0.02685
1708.49994,0.01363
1707.01016,0.01174
1705.52037,0.00987
1704.03058,0.02066
1702.54079,0.01566
1701.05100,0.01332
1699.56121,0.00551
1698.07142,0.01771
1696.58164,0.00578
1695.09185,0.01056
1693.60206,0.01163
1692.11227,0.01448
1690.62248,0.02064
1689.13269,0.01388
1687.64291,0.00977
1686.15312,0.02106
1684.66333,0.01591
1683.17354,0.00353
1681.68375,0.01761
1680.19396,0.02424
1678.70417,0.01443
1677.21439,0.02002
1675.72460,0.02321
1674.23481,0.03148
1672.74502,0.02879
1671.25523,0.02876
1669.76544,0.03907
1668.27566,0.03733
1666.78587,0.03496
1665.29608,0.03524
1663.80629,0.05421
1662.31650,0.05828
1660.82671,0.05578
1659.33693,0.05725
1657.84714,0.05546
1656.35735,0.05808
1654.86756,0.06446
1653.37777,0.06493
1651.88798,0.05445
1650.39819,0.07100
1648.90841,0.07154
1647.41862,0.06223
1645.92883,0.06447
1644.43904,0.06673
1642.94925,0.07242
1641.45946,0.07022
1639.96968,0.07420
1638.47989,0.09072
1636.99010,0.09628
1635.50031,0.08452
1634.01052,0.08794
1632.52073,0.08084
1631.03094,0.08957
1629.54116,0.09261
1628.05137,0.08975
1626.56158,0.08143
1625.07179,0.08828
1623.58200,0.09449
1622.09221,0.09371
1620.60243,0.09052
1619.11264,0.09483
1617.62285,0.08577
1616.13306,0.08376
1614.64327,0.08089
1613.15348,0.09189
1611.66370,0.10444
1610.17391,0.09988
1608.68412,0.08789
1607.19433,0.09766
1605.70454,0.08439
1604.21475,0.08268
1602.72496,0.08099
1601.23518,0.09700
1599.74539,0.09020
1598.25560,0.09967
1596.76581,0.09401
1595.27602,0.10024
1593.78623,0.08540
1592.29645,0.08706
1590.80666,0.08347
1589.31687,0.08321
1587.82708,0.07857
1586.33729,0.10250
1584.84750,0.09484
1583.35771,0.08456
1581.86793,0.08024
1580.37814,0.08340
1578.88835,0.08857
1577.39856,0.08080
1575.90877,0.06889
1574.41898,0.06666
1572.92920,0.06160
1571.43941,0.06512
1569.94962,0.06000
1568.45983,0.05490
1566.97004,0.05103
1565.48025,0.04477
1563.99047,0.03348
1562.50068,0.04067
1561.01089,0.03009
1559.52110,0.02172
1558.03131,0.02151
1556.54152,0.02571
1555.05173,0.02862
1553.56195,0.02365
1552.07216,0.01606
1550.58237,0.02212
1549.09258,0.00536
1547.60279,0.01299
1546.11300,0.00353
1544.62322,0.01539
1543.13343,0.02002
1541.64364,0.01634
1540.15385,0.01718
1538.66406,0.01804
1537.17427,0.02519
1535.68448,0.01831
1534.19470,0.02330
1532.70491,0.02657
1531.21512,0.02481
1529.72533,0.02131
1528.23554,0.01828
1526.74575,0.03986
1525.25597,0.03007
1523.76618,0.03238
1522.27639,0.04042
1520.78660,0.03224
1519.29681,0.04845
1517.80702,0.03372
1516.31724,0.03483
1514.82745,0.03948
1513.33766,0.04085
1511.84787,0.04225
1510.35808,0.04895
1508.86829,0.06115
1507.37850,0.05318
1505.88872,0.05050
1504.39893,0.08100
1502.90914,0.06344
1501.41935,0.05995
1499.92956,0.06110
1498.43977,0.06513
1496.94999,0.05820
1495.46020,0.08226
1493.97041,0.08570
1492.48062,0.10760
1490.99083,0.11395
1489.50104,0.11021
1488.01125,0.11177
1486.52147,0.11335
1485.03168,0.11671
1483.54189,0.14578
1482.05210,0.16676
1480.56231,0.17963
1479.07252,0.19341
1477.58274,0.21468
1476.09295,0.21840
1474.60316,0.21819
1473.11337,0.21493
1471.62358,0.22400
1470.13379,0.21442
1468.64401,0.22331
1467.15422,0.23815
1465.66443,0.24929
1464.17464,0.26044
1462.68485,0.29512
1461.19506,0.32850
1459.70527,0.36982
1458.21549,0.42784
1456.72570,0.45581
1455.23591,0.50641
1453.74612,0.55638
1452.25633,0.59803
1450.76654,0.61204
1449.27676,0.65593
1447.78697,0.63836
1446.29718,0.66166
1444.80739,0.64447
1443.31760,0.62730
1441.82781,0.55493
1440.33802,0.51771
1438.84824,0.45834
1437.35845,0.46048
1435.86866,0.44420
1434.37887,0.47647
1432.88908,0.51535
1431.39929,0.53471
1429.90951,0.60373
1428.41972,0.70131
1426.92993,0.75193
1425.44014,0.77644
1423.95035,0.79504
1422.46056,0.81366
1420.97078,0.83736
1419.48099,0.88700
1417.99120,0.92085
1416.50141,0.93847
1415.01162,0.89617
1413.52183,0.83785
1412.03204,0.76815
1410.54226,0.71516
1409.05247,0.65406
1407.56268,0.61583
1406.07289,0.56401
1404.58310,0.53351
1403.09331,0.50303
1401.60353,0.44623
1400.11374,0.39318
1398.62395,0.33445
1397.13416,0.30736
1395.64437,0.25460
1394.15458,0.20121
1392.66479,0.17463
1391.17501,0.15598
1389.68522,0.12967
1388.19543,0.10602
1386.70564,0.08942
1385.21585,0.07284
1383.72606,0.06331
1382.23628,0.05820
1380.74649,0.03620
1379.25670,0.03531
1377.76691,0.02697
1376.27712,0.00746
1374.78733,0.00071
1373.29755,0.00756
1371.80776,0.00324
1370.31797,0.00377
1368.82818,0.00542
1367.33839,0.00710
1365.84860,0.00353
1364.35881,0.01967
1362.86903,0.03057
1361.37924,0.03885
1359.88945,0.05485
1358.39966,0.07789
1356.90987,0.13324
1355.42008,0.15436
1353.93030,0.20777
1352.44051,0.23871
1350.95072,0.26967
1349.46093,0.33282
1347.97114,0.41137
1346.48135,0.48818
1344.99156,0.54262
1343.50178,0.59050
1342.01199,0.62456
1340.52220,0.66963
1339.03241,0.73536
1337.54262,0.80639
1336.05283,0.82891
1334.56305,0.85146
1333.07326,0.85821
1331.58347,0.82261
1330.09368,0.80855
1328.60389,0.81362
1327.11410,0.82597
1325.62432,0.81483
1324.13453,0.76486
1322.64474,0.73379
1321.15495,0.67376
1319.66516,0.66393
1318.17537,0.65412
1316.68558,0.59307
1315.19580,0.52149
1313.70601,0.48310
1312.21622,0.47086
1310.72643,0.46678
1309.23664,0.41989
1307.74685,0.38269
1306.25707,0.34288
1304.76728,0.32878
1303.27749,0.31471
1301.78770,0.27848
1300.29791,0.24492
1298.80812,0.19073
1297.31834,0.16995
1295.82855,0.13886
1294.33876,0.12603
1292.84897,0.10093
1291.35918,0.08155
1289.86939,0.08054
1288.37960,0.07955
1286.88982,0.08133
1285.40003,0.07149
1283.91024,0.05948
1282.42045,0.04904
1280.93066,0.05069
1279.44087,0.04117
1277.95109,0.03870
1276.46130,0.03537
1274.97151,0.02889
1273.48172,0.02242
1271.99193,0.01961
1270.50214,0.01857
1269.01235,0.02480
1267.52257,0.02162
1266.03278,0.00353
1264.54299,0.02655
1263.05320,0.02104
1261.56341,0.02523
1260.07362,0.02943
1258.58384,0.01083
1257.09405,0.00586
1255.60426,0.01540
1254.11447,0.01839
1252.62468,0.01524
1251.13489,0.00312
1249.64511,0.00825
1248.15532,0.00353
1246.66553,0.00388
1245.17574,0.00425
1243.68595,0.02072
1242.19616,0.00757
1240.70637,0.02803
1239.21659,0.01537
1237.72680,0.01502
1236.23701,0.01799
1234.74722,0.00847
1233.25743,0.00743
1231.76764,0.00641
1230.27786,0.00837
1228.78807,0.01454
1227.29828,0.02358
1225.80849,0.01398
1224.31870,0.00353
1222.82891,0.01646
1221.33912,0.01252
1219.84934,0.01353
1218.35955,0.01458
1216.86976,0.02190
1215.37997,0.03517
1213.89018,0.03947
1212.40039,0.05631
1210.91061,0.06065
1209.42082,0.05294
1207.93103,0.05864
1206.44124,0.06438
1204.95145,0.04839
1203.46166,0.05219
1201.97188,0.04965
1200.48209,0.05064
1198.99230,0.04617
1197.50251,0.02987
1196.01272,0.02654
1194.52293,0.02752
1193.03314,0.02852
1191.54336,0.02878
1190.05357,0.03170
1188.56378,0.02541
1187.07399,0.02618
1185.58420,0.00479
1184.09441,0.01198
1182.60463,0.01589
1181.11484,0.01983
1179.62505,0.01281
1178.13526,0.01591
1176.64547,0.01531
1175.15568,0.00353
1173.66589,0.01589
1172.17611,0.01620
1170.68632,0.01204
1169.19653,0.00790
1167.70674,0.01553
1166.21695,0.02362
1164.72716,0.03942
1163.23738,0.03131
1161.74759,0.03925
1160.25780,0.05359
1158.76801,0.05225
1157.27822,0.05093
1155.78843,0.07192
1154.29865,0.08964
1152.80886,0.07445
1151.31907,0.10189
1149.82928,0.10914
1148.33949,0.14672
1146.84970,0.14974
1145.35991,0.15278
1143.87013,0.15025
1142.38034,0.14335
1140.89055,0.16304
1139.40076,0.15465
1137.91097,0.17966
1136.42118,0.18581
1134.93140,0.19220
1133.44161,0.19861
1131.95182,0.18112
1130.46203,0.20734
1128.97224,0.21339
1127.48245,0.23176
1125.99266,0.24444
1124.50288,0.24309
1123.01309,0.24275
1121.52330,0.24244
1120.03351,0.22777
1118.54372,0.22564
1117.05393,0.22155
1115.56415,0.21837
1114.07436,0.20686
1112.58457,0.22020
1111.09478,0.23355
1109.60499,0.21751
1108.11520,0.23377
1106.62542,0.22633
1105.13563,0.23210
1103.64584,0.20737
1102.15605,0.19649
1100.66626,0.19146
1099.17647,0.18645
1097.68668,0.19453
1096.19690,0.18374
1094.70711,0.20373
1093.21732,0.20002
1091.72753,0.19502
1090.23774,0.18598
1088.74795,0.17696
1087.25817,0.17511
1085.76838,0.16185
1084.27859,0.16554
1082.78880,0.17297
1081.29901,0.16155
1079.80922,0.15981
1078.31943,0.17292
1076.82965,0.18605
1075.33986,0.17560
1073.85007,0.17395
1072.36028,0.18814
1070.87049,0.19269
1069.38070,0.20649
1067.89092,0.22998
1066.40113,0.25348
1064.91134,0.31808
1063.42155,0.41630
1061.93176,0.47501
1060.44197,0.53989
1058.95219,0.63818
1057.46240,0.68039
1055.97261,0.72261
1054.48282,0.77683
1052.99303,0.85611
1051.50324,0.83176
1050.01345,0.84411
1048.52367,0.83672
1047.03388,0.83682
1045.54409,0.83694
1044.05430,0.81842
1042.56451,0.75073
1041.07472,0.69295
1039.58494,0.65167
1038.09515,0.61348
1036.60536,0.57004
1035.11557,0.52663
1033.62578,0.45184
1032.13599,0.41023
1030.64620,0.36689
1029.15642,0.30820
1027.66663,0.27523
1026.17684,0.24228
1024.68705,0.20891
1023.19726,0.17952
1021.70747,0.15740
1020.21769,0.15068
1018.72790,0.12883
1017.23811,0.12171
1015.74832,0.11462
1014.25853,0.08581
1012.76874,0.06998
1011.27896,0.05352
1009.78917,0.04806
1008.29938,0.05602
1006.80959,0.04511
1005.31980,0.03423
1003.83001,0.03150
1002.34022,0.01891
1000.85044,0.02479
999.36065,0.04739
997.87086,0.05145
996.38107,0.05553
994.89128,0.05953
993.40149,0.07036
991.91171,0.08802
990.42192,0.09648
988.93213,0.11067
987.44234,0.11787
985.95255,0.12508
984.46276,0.12309
982.97297,0.11411
981.48319,0.09614
979.99340,0.09071
978.50361,0.07312
977.01382,0.05555
975.52403,0.04097
974.03424,0.03981
972.54446,0.02593
971.05467,0.02504
969.56488,0.00353
968.07509,0.00347
966.58530,0.00343
965.09551,0.01879
963.60573,0.01901
962.11594,0.00587
960.62615,0.00790
959.13636,0.00524
957.64657,0.00260
956.15678,0.02368
954.66699,0.02722
953.17721,0.03035
951.68742,0.05699
950.19763,0.05818
948.70784,0.05940
947.21805,0.06174
945.72826,0.07025
944.23848,0.07154
942.74869,0.09284
941.25890,0.11657
939.76911,0.12704
938.27932,0.13754
936.78953,0.17452
935.29974,0.19330
933.80996,0.20705
932.32017,0.23181
930.83038,0.22617
929.34059,0.22056
927.85080,0.24385
926.36101,0.25969
924.87123,0.29642
923.38144,0.34306
921.89165,0.37830
920.40186,0.41356
918.91207,0.48706
917.42228,0.60867
915.93250,0.74173
914.44271,0.91982
912.95292,1.04019
911.46313,1.16057
909.97334,1.41977
908.48355,1.63155
906.99376,1.79813
905.50398,1.86964
904.01419,1.90989
902.52440,1.95016
901.03461,2.00000
899.54482,1.99387
898.05503,1.87885
896.56525,1.67206
895.07546,1.54819
893.58567,1.42434
892.09588,1.16536
890.60609,0.92002
889.11630,0.68107
887.62651,0.53042
886.13673,0.45851
884.64694,0.38663
883.15715,0.25186
881.66736,0.18475
880.17757,0.14775
878.68778,0.12526
877.19800,0.10280
875.70821,0.06564
874.21842,0.04938
872.72863,0.04038
871.23884,0.02372
869.74905,0.01828
868.25927,0.01287
866.76948,0.00353
865.27969,0.03259
863.78990,0.04015
862.30011,0.02864
860.81032,0.03208
859.32053,0.03554
857.83075,0.05066
856.34096,0.07284
854.85117,0.08340
853.36138,0.09354
851.87159,0.10306
850.38180,0.11259
848.89202,0.12720
847.40223,0.16510
845.91244,0.17647
844.42265,0.18016
842.93286,0.18389
841.44307,0.17029
839.95329,0.19426
838.46350,0.21211
836.97371,0.21570
835.48392,0.21471
833.99413,0.21375
832.50434,0.22488
831.01455,0.21825
829.52477,0.20747
828.03498,0.16817
826.54519,0.16436
825.05540,0.16057
823.56561,0.14220
822.07582,0.14164
820.58604,0.12156
819.09625,0.12072
817.60646,0.11990
816.11667,0.10385
814.62688,0.10846
813.13709,0.10519
811.64730,0.10018
810.15752,0.10980
808.66773,0.11945
807.17794,0.12923
805.68815,0.10960
804.19836,0.13458
802.70857,0.14289
801.21879,0.15123
799.72900,0.11918
798.23921,0.11439
796.74942,0.12016
795.25963,0.11586
793.76984,0.11158
792.28006,0.12950
790.79027,0.12855
789.30048,0.14696
787.81069,0.15178
786.32090,0.16628
784.83111,0.18080
783.34132,0.19930
781.85154,0.25625
780.36175,0.29742
778.87196,0.31325
777.38217,0.32910
775.89238,0.34245
774.40259,0.36219
772.91281,0.32244
771.42302,0.30852
769.93323,0.29462
768.44344,0.25868
766.95365,0.20937
765.46386,0.15986
763.97407,0.14463
762.48429,0.12920
760.99450,0.11380
759.50471,0.10238
758.01492,0.08065
756.52513,0.07784
755.03534,0.07329
753.54556,0.06877
752.05577,0.06361
750.56598,0.05496
749.07619,0.03162
747.58640,0.02675
746.09661,0.02191
744.60683,0.01862
743.11704,0.02085
741.62725,0.00444
740.13746,0.00397
738.64767,0.00353
737.15788,0.01513
735.66809,0.01688
734.17831,0.00438
732.68852,0.00706
731.19873,0.00976
729.70894,0.00940
728.21915,0.00578
726.72936,0.00904
725.23958,0.00375
723.74979,0.00332
722.26000,0.00289
720.77021,0.00947
719.28042,0.00532
717.79063,0.00800
716.30084,0.01235
714.81106,0.01673
713.32127,0.01421
711.83148,0.03389
710.34169,0.00638
708.85190,0.01140
707.36211,0.01644
705.87233,0.01624
704.38254,0.04482
702.89275,0.04225
701.40296,0.05254
699.91317,0.06286
698.42338,0.05816
696.93360,0.07325
695.44381,0.09253
693.95402,0.10569
692.46423,0.11887
690.97444,0.11846
689.48465,0.14707
687.99486,0.17042
686.50508,0.17348
685.01529,0.17657
683.52550,0.20768
682.03571,0.22367
680.54592,0.24692
679.05613,0.24791
677.56635,0.24892
676.07656,0.23359
674.58677,0.23235
673.09698,0.21180
671.60719,0.20862
670.11740,0.20547
668.62761,0.16742
667.13783,0.15400
665.64804,0.13906
664.15825,0.12414
662.66846,0.09871
661.17867,0.08691
659.68888,0.05779
658.19910,0.05395
656.70931,0.05013
655.21952,0.04919
653.72973,0.03444
652.23994,0.02652
650.75015,0.02894
649.26037,0.03139
647.77058,0.02969
646.28079,0.03657
644.79100,0.04502
643.30121,0.04131
641.81142,0.03761
640.32163,0.04964
638.83185,0.04457
637.34206,0.03030
635.85227,0.02582
634.36248,0.02137
632.87269,0.00958
631.38290,0.01275
629.89312,0.01244
628.40333,0.00797
626.91354,0.00353
625.42375,0.01226
623.93396,0.00739
622.44417,0.01430
620.95438,0.02123
619.46460,0.03555
617.97481,0.06196
616.48502,0.08159
614.99523,0.09751
613.50544,0.11346
612.01565,0.11954
610.52587,0.15354
609.03608,0.16341
607.54629,0.19032
606.05650,0.21725
604.56671,0.26495
603.07692,0.30302
601.58714,0.33420
600.09735,0.36540
598.60756,0.37828
597.11777,0.38504
595.62798,0.39446
594.13819,0.39545
592.64840,0.39647
591.15862,0.34689
589.66883,0.30392
588.17904,0.24714
586.68925,0.21487
585.19946,0.18262
583.70967,0.14524
582.21989,0.12566
580.73010,0.10447
579.24031,0.08329
577.75052,0.07235
576.26073,0.05902
574.77094,0.05692
573.28115,0.04407
571.79137,0.03125
570.30158,0.02570
568.81179,0.06629
567.32200,0.06836
565.83221,0.07046
564.34242,0.08081
562.85264,0.07977
561.36285,0.10576
559.87306,0.11268
558.38327,0.11961
556.89348,0.12394
555.40369,0.13114
553.91391,0.13233
552.42412,0.13354
550.93433,0.14542
549.44454,0.14591
547.95475,0.15169
546.46496,0.15948
544.97517,0.16728
543.48539,0.18829
541.99560,0.21679
540.50581,0.23806
539.01602,0.25935
537.52623,0.28638
536.03644,0.34769
534.54666,0.36467
533.05687,0.37837
531.56708,0.39210
530.07729,0.41595
528.58750,0.46530
527.09771,0.51413
525.60792,0.56298
524.11814,0.63985
522.62835,0.70400
521.13856,0.74030
519.64877,0.75586
518.15898,0.77145
516.66919,0.78827
515.17941,0.82751
513.68962,0.82922
512.19983,0.83096
510.71004,0.77519
509.22025,0.69638
507.73046,0.64856
506.24068,0.59846
504.75089,0.54838
503.26110,0.45430
501.77131,0.36749
500.28152,0.32418
498.79173,0.28089
497.30194,0.22533
495.81216,0.17507
494.32237,0.15996
492.83258,0.14488
491.34279,0.09117
489.85300,0.07416
488.36321,0.09955
486.87343,0.09609
485.38364,0.09265
483.89385,0.07024
482.40406,0.06696
480.91427,0.07622
479.42448,0.08551
477.93469,0.10623
476.44491,0.14323
474.95512,0.16060
473.46533,0.17800
471.97554,0.18608
470.48575,0.19199
468.99596,0.16894
467.50618,0.14756
466.01639,0.12621
464.52660,0.12080
463.03681,0.10443
461.54702,0.08600
460.05723,0.06759
458.56745,0.05217
457.07766,0.04534
455.58787,0.02645
454.09808,0.00759
452.60829,0.01071
451.11850,0.00990
449.62871,0.00670
448.13893,0.00353
446.64914,0.01495
445.15935,0.02530
443.66956,0.01921
442.17977,0.01852
440.68998,0.01785
439.20020,0.02193
437.71041,0.02867
436.22062,0.04235
434.73083,0.05605
433.24104,0.04551
431.75125,0.04838
430.26146,0.03921
428.77168,0.03006
427.28189,0.03652
425.79210,0.02939
424.30231,0.04194
422.81252,0.05451
421.32273,0.04723
419.83295,0.01780
418.34316,0.02034
416.85337,0.02291
415.36358,0.01463
413.87379,0.03009
412.38400,0.02383
410.89422,0.01760
409.40443,0.03247
407.91464,0.04517
406.42485,0.02846
404.93506,0.01958
403.44527,0.01072
401.95548,0.00353
400.46570,0.01303
398.97591,0.01235
397.48612,0.01169
395.99633,0.02434
394.50654,0.03416
393.01675,0.02688
391.52697,0.01962
390.03718,0.05827
388.54739,0.00429
387.05760,0.00394
385.56781,0.00361
384.07802,0.01056
382.58824,0.00479
381.09845,0.00443
379.60866,0.00409
378.11887,0.01530
376.62908,0.00524
375.13929,0.00387
373.64950,0.00253
372.15972,0.00000
370.66993,0.01638
369.18014,0.01654
367.69035,0.01671
366.20056,0.01626
364.71077,0.00353
363.22099,0.01307
361.73120,0.02264
360.24141,0.02422
358.75162,0.00979
357.26183,0.01778
355.77204,0.02579
354.28225,0.01802
352.79247,0.01884
351.30268,0.03461
349.81289,0.05041
348.32310,0.04910
346.83331,0.02344
345.34352,0.02130
343.85374,0.01918
342.36395,0.03246
340.87416,0.03698
339.38437,0.03317
337.89458,0.02940
336.40479,0.03618
334.91501,0.01730
333.42522,0.01139
331.93543,0.00551
330.44564,0.02776
328.95585,0.03818
327.46606,0.02084
325.97627,0.00353
324.48649,0.02232
322.99670,0.05958
321.50691,0.07261
320.01712,0.08565
318.52733,0.10081
317.03754,0.08041
315.54776,0.06246
314.05797,0.04453
312.56818,0.04748
311.07839,0.03838
309.58860,0.04204
308.09881,0.04572
306.60902,0.04152
305.11924,0.03383
303.62945,0.02276
302.13966,0.01171
300.64987,0.00607
299.16008,0.00353
