1778.52000,0.01042
1777.03021,0.02033
1775.54042,0.02033
1774.05063,0.02245
1772.56085,0.01047
1771.07106,0.02179
1769.58127,0.02372
1768.09148,0.01260
1766.60169,0.00804
1765.11190,0.01658
1763.62212,0.01442
1762.13233,0.02353
1760.64254,0.01567
1759.15275,0.02064
1757.66296,0.00682
1756.17317,0.00426
1754.68339,0.01375
1753.19360,0.00000
1751.70381,0.00091
1750.21402,0.00081
1748.72423,0.00229
1747.23444,0.00642
1745.74465,0.00507
1744.25487,0.01526
1742.76508,0.00874
1741.27529,0.01636
1739.78550,0.01642
1738.29571,0.01442
1736.80592,0.02159
1735.31614,0.00682
1733.82635,0.02450
1732.33656,0.01057
1730.84677,0.00739
1729.35698,0.01181
1727.86719,0.01260
1726.37740,0.01106
1724.88762,0.01085
1723.39783,0.01589
1721.90804,0.00684
1720.41825,0.01978
1718.92846,0.00371
1717.43867,0.00831
1715.94889,0.01581
1714.45910,0.01679
1712.96931,0.00682
1711.47952,0.01111
1709.98973,0.00941
1708.49994,0.01819
1707.01016,0.01615
1705.52037,0.01413
1704.03058,0.01070
1702.54079,0.01226
1701.05100,0.01672
1699.56121,0.01781
1698.07142,0.01630
1696.58164,0.01325
1695.09185,0.02252
1693.60206,0.02292
1692.11227,0.01628
1690.62248,0.01986
1689.13269,0.03393
1687.64291,0.03652
1686.15312,0.04253
1684.66333,0.04517
1683.17354,0.03737
1681.68375,0.04136
1680.19396,0.03597
1678.70417,0.03452
1677.21439,0.04800
1675.72460,0.03901
1674.23481,0.05045
1672.74502,0.05302
1671.25523,0.05613
1669.76544,0.07653
1668.27566,0.06636
1666.78587,0.05779
1665.29608,0.07407
1663.80629,0.08202
1662.31650,0.07875
1660.82671,0.08151
1659.33693,0.09110
1657.84714,0.09260
1656.35735,0.08995
1654.86756,0.08104
1653.37777,0.08916
1651.88798,0.08553
1650.39819,0.08193
1648.90841,0.09979
1647.41862,0.08003
1645.92883,0.08265
1644.43904,0.08529
1642.94925,0.08363
1641.45946,0.08462
1639.96968,0.07910
1638.47989,0.09426
1636.99010,0.10787
1635.50031,0.09248
1634.01052,0.09255
1632.52073,0.09996
1631.03094,0.08517
1629.54116,0.08321
1628.05137,0.10429
1626.56158,0.10396
1625.07179,0.09240
1623.58200,0.10728
1622.09221,0.09420
1620.60243,0.10338
1619.11264,0.11153
1617.62285,0.09983
1616.13306,0.09339
1614.64327,0.09037
1613.15348,0.10385
1611.66370,0.10873
1610.17391,0.10369
1608.68412,0.10391
1607.19433,0.09238
1605.70454,0.09683
1604.21475,0.09647
1602.72496,0.09613
1601.23518,0.09464
1599.74539,0.10860
1598.25560,0.09695
1596.76581,0.10286
1595.27602,0.10617
1593.78623,0.10584
1592.29645,0.10162
1590.80666,0.08932
1589.31687,0.08488
1587.82708,0.08178
1586.33729,0.08838
1584.84750,0.08506
1583.35771,0.09720
1581.86793,0.08452
1580.37814,0.08415
1578.88835,0.08250
1577.39856,0.07904
1575.90877,0.07718
1574.41898,0.06802
1572.92920,0.06176
1571.43941,0.06834
1569.94962,0.06344
1568.45983,0.05856
1566.97004,0.05815
1565.48025,0.04600
1563.99047,0.04041
1562.50068,0.03353
1561.01089,0.04237
1559.52110,0.04026
1558.03131,0.03058
1556.54152,0.02197
1555.05173,0.02934
1553.56195,0.03647
1552.07216,0.04075
1550.58237,0.02884
1549.09258,0.02611
1547.60279,0.02157
1546.11300,0.02726
1544.62322,0.00682
1543.13343,0.01816
1541.64364,0.02143
1540.15385,0.02236
1538.66406,0.02332
1537.17427,0.01960
1535.68448,0.02192
1534.19470,0.01275
1532.70491,0.01407
1531.21512,0.02692
1529.72533,0.02044
1528.23554,0.01843
1526.74575,0.02508
1525.25597,0.02547
1523.76618,0.02641
1522.27639,0.03418
1520.78660,0.03778
1519.29681,0.05814
1517.80702,0.02048
1516.31724,0.02678
1514.82745,0.03100
1513.33766,0.03826
1511.84787,0.04554
1510.35808,0.03938
1508.86829,0.03926
1507.37850,0.02556
1505.88872,0.05582
1504.39893,0.04871
1502.90914,0.05836
1501.41935,0.06908
1499.92956,0.05995
1498.43977,0.07595
1496.94999,0.06347
1495.46020,0.06539
1493.97041,0.09036
1492.48062,0.09651
1490.99083,0.11185
1489.50104,0.12564
1488.01125,0.13488
1486.52147,0.14414
1485.03168,0.15591
1483.54189,0.17372
1482.05210,0.17456
1480.56231,0.22144
1479.07252,0.23619
1477.58274,0.26194
1476.09295,0.25477
1474.60316,0.27299
1473.11337,0.27842
1471.62358,0.28309
1470.13379,0.28883
1468.64401,0.30662
1467.15422,0.29959
1465.66443,0.31874
1464.17464,0.33791
1462.68485,0.38587
1461.19506,0.41137
1459.70527,0.44369
1458.21549,0.50793
1456.72570,0.56200
1455.23591,0.62682
1453.74612,0.67675
1452.25633,0.72018
1450.76654,0.74244
1449.27676,0.73493
1447.78697,0.71122
1446.29718,0.71369
1444.80739,0.69749
1443.31760,0.68131
1441.82781,0.62868
1440.33802,0.56797
1438.84824,0.51382
1437.35845,0.49159
1435.86866,0.47462
1434.37887,0.51598
1432.88908,0.55187
1431.39929,0.61028
1429.90951,0.67499
1428.41972,0.75541
1426.92993,0.80369
1425.44014,0.83944
1423.95035,0.84175
1422.46056,0.84409
1420.97078,0.90737
1419.48099,0.92178
1417.99120,0.94511
1416.50141,0.96715
1415.01162,0.92097
1413.52183,0.87795
1412.03204,0.80332
1410.54226,0.71355
1409.05247,0.66407
1407.56268,0.61357
1406.07289,0.56152
1404.58310,0.52480
1403.09331,0.48809
1401.60353,0.45416
1400.11374,0.39149
1398.62395,0.35552
1397.13416,0.32924
1395.64437,0.26665
1394.15458,0.21976
1392.66479,0.18205
1391.17501,0.16921
1389.68522,0.13966
1388.19543,0.09862
1386.70564,0.08925
1385.21585,0.07991
1383.72606,0.05751
1382.23628,0.04115
1380.74649,0.03188
1379.25670,0.03544
1377.76691,0.02412
1376.27712,0.00682
1374.78733,0.01334
1373.29755,0.01884
1371.80776,0.02123
1370.31797,0.01318
1368.82818,0.01209
1367.33839,0.01102
1365.84860,0.00932
1364.35881,0.04135
1362.86903,0.05301
1361.37924,0.06496
1359.88945,0.08320
1358.39966,0.09912
1356.90987,0.14879
1355.42008,0.19299
1353.93030,0.23565
1352.44051,0.26500
1350.95072,0.29438
1349.46093,0.40562
1347.97114,0.47269
1346.48135,0.57457
1344.99156,0.62862
1343.50178,0.70021
1342.01199,0.71561
1340.52220,0.76163
1339.03241,0.88481
1337.54262,0.90682
1336.05283,0.92257
1334.56305,0.93836
1333.07326,0.97639
1331.58347,0.96163
1330.09368,0.90140
1328.60389,0.93166
1327.11410,0.92900
1325.62432,0.91590
1324.13453,0.88427
1322.64474,0.85945
1321.15495,0.79152
1319.66516,0.75944
1318.17537,0.72737
1316.68558,0.67102
1315.19580,0.61391
1313.70601,0.58532
1312.21622,0.55074
1310.72643,0.53736
1309.23664,0.48976
1307.74685,0.49029
1306.25707,0.44927
1304.76728,0.41063
1303.27749,0.37202
1301.78770,0.34938
1300.29791,0.30087
1298.80812,0.27305
1297.31834,0.20472
1295.82855,0.17799
1294.33876,0.13639
1292.84897,0.12069
1291.35918,0.11730
1289.86939,0.11434
1288.37960,0.11139
1286.88982,0.10913
1285.40003,0.10637
1283.91024,0.07722
1282.42045,0.07529
1280.93066,0.07338
1279.44087,0.07752
1277.95109,0.05997
1276.46130,0.05892
1274.97151,0.06064
1273.48172,0.06239
1271.99193,0.03579
1270.50214,0.02935
1269.01235,0.03731
1267.52257,0.03876
1266.03278,0.02272
1264.54299,0.02029
1263.05320,0.02888
1261.56341,0.02768
1260.07362,0.02651
1258.58384,0.01843
1257.09405,0.03129
1255.60426,0.01228
1254.11447,0.02703
1252.62468,0.03003
1251.13489,0.01135
1249.64511,0.00682
1248.15532,0.01694
1246.66553,0.01559
1245.17574,0.01426
1243.68595,0.02237
1242.19616,0.02161
1240.70637,0.01930
1239.21659,0.02827
1237.72680,0.02471
1236.23701,0.02248
1234.74722,0.01583
1233.25743,0.01704
1231.76764,0.01829
1230.27786,0.00805
1228.78807,0.01038
1227.29828,0.03576
1225.80849,0.03108
1224.31870,0.01545
1222.82891,0.02285
1221.33912,0.03132
1219.84934,0.03420
1218.35955,0.03710
1216.86976,0.03623
1215.37997,0.05709
1213.89018,0.07196
1212.40039,0.07613
1210.91061,0.08530
1209.42082,0.08272
1207.93103,0.08736
1206.44124,0.09202
1204.95145,0.08324
1203.46166,0.10325
1201.97188,0.07988
1200.48209,0.08084
1198.99230,0.08419
1197.50251,0.05017
1196.01272,0.04415
1194.52293,0.04522
1193.03314,0.04631
1191.54336,0.05867
1190.05357,0.05248
1188.56378,0.04371
1187.07399,0.03601
1185.58420,0.03591
1184.09441,0.00682
1182.60463,0.01429
1181.11484,0.02179
1179.62505,0.03140
1178.13526,0.04025
1176.64547,0.02795
1175.15568,0.02430
1173.66589,0.00682
1172.17611,0.02362
1170.68632,0.02032
1169.19653,0.01703
1167.70674,0.02816
1166.21695,0.03983
1164.72716,0.04473
1163.23738,0.05226
1161.74759,0.06087
1160.25780,0.05773
1158.76801,0.06390
1157.27822,0.07010
1155.78843,0.09345
1154.29865,0.08910
1152.80886,0.09994
1151.31907,0.08989
1149.82928,0.10131
1148.33949,0.12399
1146.84970,0.13611
1145.35991,0.14825
1143.87013,0.15114
1142.38034,0.15117
1140.89055,0.15515
1139.40076,0.15889
1137.91097,0.18802
1136.42118,0.21456
1134.93140,0.21877
1133.44161,0.22300
1131.95182,0.21117
1130.46203,0.23755
1128.97224,0.25140
1127.48245,0.22160
1125.99266,0.23602
1124.50288,0.25334
1123.01309,0.25226
1121.52330,0.25119
1120.03351,0.22936
1118.54372,0.25436
1117.05393,0.23415
1115.56415,0.24325
1114.07436,0.22832
1112.58457,0.23080
1111.09478,0.23330
1109.60499,0.22760
1108.11520,0.22348
1106.62542,0.23900
1105.13563,0.22082
1103.64584,0.22279
1102.15605,0.21982
1100.66626,0.21517
1099.17647,0.21055
1097.68668,0.18726
1096.19690,0.19981
1094.70711,0.21030
1093.21732,0.21505
1091.72753,0.21304
1090.23774,0.20699
1088.74795,0.20097
1087.25817,0.17889
1085.76838,0.19031
1084.27859,0.17796
1082.78880,0.18498
1081.29901,0.20509
1079.80922,0.20118
1078.31943,0.19873
1076.82965,0.19630
1075.33986,0.21652
1073.85007,0.22761
1072.36028,0.20133
1070.87049,0.24410
1069.38070,0.24768
1067.89092,0.26331
1066.40113,0.27897
1064.91134,0.37570
1063.42155,0.49548
1061.93176,0.60063
1060.44197,0.68855
1058.95219,0.78094
1057.46240,0.82393
1055.97261,0.86695
1054.48282,0.95209
1052.99303,0.99411
1051.50324,0.98752
1050.01345,0.98724
1048.52367,1.01338
1047.03388,0.99667
1045.54409,0.97998
1044.05430,0.88748
1042.56451,0.80286
1041.07472,0.74650
1039.58494,0.69774
1038.09515,0.62077
1036.60536,0.56828
1035.11557,0.51581
1033.62578,0.48624
1032.13599,0.41198
1030.64620,0.35527
1029.15642,0.32891
1027.66663,0.29238
1026.17684,0.25587
1024.68705,0.21677
1023.19726,0.16750
1021.70747,0.15147
1020.21769,0.15140
1018.72790,0.13384
1017.23811,0.12206
1015.74832,0.11030
1014.25853,0.09413
1012.76874,0.11981
1011.27896,0.09113
1009.78917,0.08444
1008.29938,0.08797
1006.80959,0.07792
1005.31980,0.06790
1003.83001,0.04405
1002.34022,0.00898
1000.85044,0.02178
999.36065,0.04272
997.87086,0.04537
996.38107,0.04805
994.89128,0.05729
993.40149,0.08826
991.91171,0.11637
990.42192,0.13850
988.93213,0.13764
987.44234,0.13615
985.95255,0.13468
984.46276,0.13860
982.97297,0.13653
981.48319,0.11487
979.99340,0.08147
978.50361,0.07242
977.01382,0.06338
975.52403,0.05490
974.03424,0.04225
972.54446,0.01708
971.05467,0.02776
969.56488,0.00682
968.07509,0.01221
966.58530,0.01762
965.09551,0.01914
963.60573,0.01858
962.11594,0.01936
960.62615,0.00605
959.13636,0.00733
957.64657,0.00863
956.15678,0.02814
954.66699,0.04165
953.17721,0.02956
951.68742,0.05175
950.19763,0.06129
948.70784,0.07084
947.21805,0.08866
945.72826,0.07487
944.23848,0.08646
942.74869,0.11402
941.25890,0.11886
939.76911,0.13027
938.27932,0.14169
936.78953,0.15210
935.29974,0.19992
933.80996,0.21273
932.32017,0.23864
930.83038,0.24116
929.34059,0.24372
927.85080,0.25714
926.36101,0.29387
924.87123,0.31153
923.38144,0.38621
921.89165,0.42027
920.40186,0.45434
918.91207,0.54924
917.42228,0.68128
915.93250,0.83140
914.44271,1.01710
912.95292,1.12137
911.46313,1.22567
909.97334,1.48125
908.48355,1.69268
906.99376,1.85444
905.50398,1.88889
904.01419,1.91604
902.52440,1.94322
901.03461,1.97460
899.54482,2.00000
898.05503,1.86670
896.56525,1.67590
895.07546,1.52226
893.58567,1.36864
892.09588,1.12536
890.60609,0.90956
889.11630,0.68489
887.62651,0.55412
886.13673,0.47553
884.64694,0.39697
883.15715,0.27934
881.66736,0.19469
880.17757,0.18981
878.68778,0.15802
877.19800,0.12625
875.70821,0.10340
874.21842,0.06489
872.72863,0.04078
871.23884,0.03421
869.74905,0.03931
868.25927,0.04443
866.76948,0.04682
865.27969,0.05265
863.78990,0.06189
862.30011,0.07404
860.81032,0.08516
859.32053,0.09631
857.83075,0.09728
856.34096,0.12234
854.85117,0.14036
853.36138,0.14873
851.87159,0.16013
850.38180,0.17155
848.89202,0.18862
847.40223,0.22402
845.91244,0.24349
844.42265,0.25554
842.93286,0.26761
841.44307,0.27225
839.95329,0.30908
838.46350,0.31272
836.97371,0.32947
835.48392,0.32610
833.99413,0.32276
832.50434,0.29591
831.01455,0.30882
829.52477,0.28856
828.03498,0.26439
826.54519,0.23790
825.05540,0.21143
823.56561,0.20356
822.07582,0.19832
820.58604,0.18316
819.09625,0.18817
817.60646,0.19320
816.11667,0.15407
814.62688,0.17118
813.13709,0.16242
811.64730,0.15761
810.15752,0.15414
808.66773,0.15069
807.17794,0.17236
805.68815,0.17445
804.19836,0.17604
802.70857,0.18327
801.21879,0.19053
799.72900,0.18723
798.23921,0.17401
796.74942,0.17703
795.25963,0.16922
793.76984,0.16143
792.28006,0.18205
790.79027,0.20320
789.30048,0.21079
787.81069,0.22964
786.32090,0.24486
784.83111,0.26010
783.34132,0.27981
781.85154,0.33563
780.36175,0.39382
778.87196,0.41478
777.38217,0.43577
775.89238,0.46371
774.40259,0.46265
772.91281,0.46919
771.42302,0.44608
769.93323,0.42300
768.44344,0.34699
766.95365,0.29402
765.46386,0.26303
763.97407,0.22318
762.48429,0.21512
760.99450,0.20709
759.50471,0.16600
758.01492,0.13278
756.52513,0.11790
755.03534,0.11323
753.54556,0.10858
752.05577,0.11442
750.56598,0.07375
749.07619,0.05453
747.58640,0.05116
746.09661,0.04782
744.60683,0.04672
743.11704,0.04146
741.62725,0.01296
740.13746,0.01690
738.64767,0.02087
737.15788,0.02460
735.66809,0.02234
734.17831,0.01618
732.68852,0.01149
731.19873,0.00682
729.70894,0.01411
728.21915,0.01542
726.72936,0.00682
725.23958,0.02081
723.74979,0.02241
722.26000,0.02404
720.77021,0.01092
719.28042,0.01063
717.79063,0.00906
716.30084,0.01104
714.81106,0.01305
713.32127,0.00946
711.83148,0.03335
710.34169,0.02406
708.85190,0.03087
707.36211,0.03770
705.87233,0.03790
704.38254,0.04334
702.89275,0.04359
701.40296,0.04594
699.91317,0.04832
698.42338,0.06302
696.93360,0.07513
695.44381,0.11000
693.95402,0.11484
692.46423,0.11969
690.97444,0.12431
689.48465,0.14622
687.99486,0.16160
686.50508,0.17362
685.01529,0.18566
683.52550,0.22596
682.03571,0.26132
680.54592,0.27108
679.05613,0.27393
677.56635,0.27681
676.07656,0.24846
674.58677,0.23348
673.09698,0.22689
671.60719,0.21077
670.11740,0.19468
668.62761,0.19993
667.13783,0.18036
665.64804,0.16853
664.15825,0.15672
662.66846,0.11343
661.17867,0.10677
659.68888,0.10170
658.19910,0.08594
656.70931,0.07020
655.21952,0.06050
653.72973,0.05789
652.23994,0.05739
650.75015,0.05874
649.26037,0.06012
647.77058,0.06911
646.28079,0.05929
644.79100,0.06100
643.30121,0.06444
641.81142,0.06790
640.32163,0.07361
638.83185,0.08065
637.34206,0.06837
635.85227,0.05702
634.36248,0.04570
632.87269,0.00682
631.38290,0.04245
629.89312,0.02999
628.40333,0.02776
626.91354,0.02555
625.42375,0.00898
623.93396,0.02382
622.44417,0.02940
620.95438,0.03500
619.46460,0.05644
617.97481,0.06902
616.48502,0.11327
614.99523,0.11687
613.50544,0.12050
612.01565,0.14259
610.52587,0.15059
609.03608,0.19600
607.54629,0.22287
606.05650,0.24976
604.56671,0.29080
603.07692,0.32140
601.58714,0.35438
600.09735,0.38739
598.60756,0.41911
597.11777,0.43491
595.62798,0.42902
594.13819,0.41990
592.64840,0.41080
591.15862,0.39714
589.66883,0.33697
588.17904,0.27238
586.68925,0.23631
585.19946,0.20027
583.70967,0.17288
582.21989,0.15048
580.73010,0.12693
579.24031,0.10340
577.75052,0.09128
576.26073,0.07081
574.77094,0.05821
573.28115,0.05583
571.79137,0.05347
570.30158,0.06474
568.81179,0.07760
567.32200,0.08264
565.83221,0.08770
564.34242,0.10272
562.85264,0.13372
561.36285,0.14043
559.87306,0.15239
558.38327,0.16437
556.89348,0.18135
555.40369,0.19626
553.91391,0.19315
552.42412,0.19006
550.93433,0.20688
549.44454,0.19652
547.95475,0.22724
546.46496,0.22673
544.97517,0.22626
543.48539,0.24450
541.99560,0.27322
540.50581,0.28890
539.01602,0.30460
537.52623,0.34908
536.03644,0.40301
534.54666,0.41041
533.05687,0.43235
531.56708,0.45432
530.07729,0.47905
528.58750,0.52970
527.09771,0.55906
525.60792,0.58844
524.11814,0.61903
522.62835,0.70220
521.13856,0.76028
519.64877,0.78061
518.15898,0.80097
516.66919,0.81965
515.17941,0.80436
513.68962,0.80844
512.19983,0.81255
510.71004,0.76675
509.22025,0.72070
507.73046,0.69141
506.24068,0.65404
504.75089,0.61670
503.26110,0.49179
501.77131,0.38180
500.28152,0.31956
498.79173,0.25734
497.30194,0.20338
495.81216,0.17717
494.32237,0.16444
492.83258,0.15174
491.34279,0.09710
489.85300,0.06810
488.36321,0.07495
486.87343,0.07176
485.38364,0.06860
483.89385,0.09043
482.40406,0.10365
480.91427,0.10971
479.42448,0.11579
477.93469,0.13354
476.44491,0.16516
474.95512,0.19067
473.46533,0.21620
471.97554,0.22698
470.48575,0.24327
468.99596,0.21226
467.50618,0.20128
466.01639,0.19033
464.52660,0.13115
463.03681,0.08612
461.54702,0.06818
460.05723,0.05026
458.56745,0.03695
457.07766,0.03019
455.58787,0.02516
454.09808,0.02015
452.60829,0.04170
451.11850,0.01413
449.62871,0.01520
448.13893,0.01631
446.64914,0.02776
445.15935,0.01048
443.66956,0.00682
442.17977,0.01593
440.68998,0.02506
439.20020,0.02664
437.71041,0.04916
436.22062,0.04202
434.73083,0.03491
433.24104,0.03659
431.75125,0.03698
430.26146,0.05046
428.77168,0.06398
427.28189,0.05477
425.79210,0.04689
424.30231,0.04805
422.81252,0.04924
421.32273,0.06026
419.83295,0.05562
418.34316,0.05505
416.85337,0.05451
415.36358,0.04287
413.87379,0.02761
412.38400,0.01720
410.89422,0.00682
409.40443,0.01384
407.91464,0.03527
406.42485,0.02639
404.93506,0.02682
403.44527,0.02728
401.95548,0.01507
400.46570,0.01649
398.97591,0.01480
397.48612,0.01312
395.99633,0.03213
394.50654,0.04620
393.01675,0.05166
391.52697,0.05715
390.03718,0.03703
388.54739,0.02531
387.05760,0.01714
385.56781,0.00900
384.07802,0.02226
382.58824,0.04364
381.09845,0.02845
379.60866,0.01328
378.11887,0.02324
376.62908,0.00420
375.13929,0.01219
373.64950,0.02020
372.15972,0.02824
370.66993,0.04363
369.18014,0.03603
367.69035,0.02845
366.20056,0.02404
364.71077,0.06201
363.22099,0.04457
361.73120,0.02716
360.24141,0.02572
358.75162,0.02639
357.26183,0.03899
355.77204,0.05161
354.28225,0.02726
352.79247,0.04607
351.30268,0.05720
349.81289,0.06835
348.32310,0.09064
346.83331,0.04549
345.34352,0.04259
343.85374,0.03972
342.36395,0.03203
340.87416,0.03666
339.38437,0.03073
337.89458,0.02481
336.40479,0.01226
334.91501,0.02535
333.42522,0.02134
331.93543,0.01736
330.44564,0.03052
328.95585,0.04816
327.46606,0.03405
325.97627,0.01996
324.48649,0.00682
322.99670,0.05303
321.50691,0.06187
320.01712,0.07074
318.52733,0.09192
317.03754,0.08959
315.54776,0.07931
314.05797,0.06906
312.56818,0.06524
311.07839,0.04862
309.58860,0.04733
308.09881,0.04607
306.60902,0.07137
305.11924,0.03472
303.62945,0.02999
302.13966,0.02529
300.64987,0.01147
299.16008,0.00682
