1778.52000,0.00000
1777.03021,0.01197
1775.54042,0.00906
1774.05063,0.01451
1772.56085,0.00967
1771.07106,0.01188
1769.58127,0.01674
1768.09148,0.01439
1766.60169,0.01096
1765.11190,0.01042
1763.62212,0.00770
1762.13233,0.01202
1760.64254,0.01330
1759.15275,0.02292
1757.66296,0.01460
1756.17317,0.01508
1754.68339,0.01886
1753.19360,0.01346
1751.70381,0.01620
1750.21402,0.02400
1748.72423,0.01407
1747.23444,0.01139
1745.74465,0.01292
1744.25487,0.01557
1742.76508,0.01714
1741.27529,0.02050
1739.78550,0.01774
1738.29571,0.02114
1736.80592,0.02237
1735.31614,0.02143
1733.82635,0.01724
1732.33656,0.02007
1730.84677,0.00759
1729.35698,0.00719
1727.86719,0.01712
1726.37740,0.00887
1724.88762,0.01994
1723.39783,0.01635
1721.90804,0.01585
1720.41825,0.01888
1718.92846,0.01404
1717.43867,0.00770
1715.94889,0.02049
1714.45910,0.02476
1712.96931,0.01722
1711.47952,0.01605
1709.98973,0.01272
1708.49994,0.02564
1707.01016,0.02192
1705.52037,0.01822
1704.03058,0.02134
1702.54079,0.01353
1701.05100,0.01297
1699.56121,0.00674
1698.07142,0.01040
1696.58164,0.01758
1695.09185,0.00770
1693.60206,0.01946
1692.11227,0.01590
1690.62248,0.01543
1689.13269,0.01850
1687.64291,0.02597
1686.15312,0.03040
1684.66333,0.02828
1683.17354,0.03319
1681.68375,0.03002
1680.19396,0.02863
1678.70417,0.02507
1677.21439,0.03139
1675.72460,0.03555
1674.23481,0.03513
1672.74502,0.03210
1671.25523,0.03589
1669.76544,0.05220
1668.27566,0.04793
1666.78587,0.04609
1665.29608,0.04187
1663.80629,0.04841
1662.31650,0.07339
1660.82671,0.07055
1659.33693,0.09426
1657.84714,0.07547
1656.35735,0.06591
1654.86756,0.07348
1653.37777,0.06134
1651.88798,0.07311
1650.39819,0.07943
1648.90841,0.08665
1647.41862,0.06890
1645.92883,0.07124
1644.43904,0.07360
1642.94925,0.07258
1641.45946,0.08738
1639.96968,0.06931
1638.47989,0.07034
1636.99010,0.08499
1635.50031,0.07007
1634.01052,0.08081
1632.52073,0.07931
1631.03094,0.08265
1629.54116,0.07374
1628.05137,0.08744
1626.56158,0.09151
1625.07179,0.08355
1623.58200,0.08942
1622.09221,0.09050
1620.60243,0.08918
1619.11264,0.09184
1617.62285,0.08970
1616.13306,0.08298
1614.64327,0.08045
1613.15348,0.09504
1611.66370,0.08291
1610.17391,0.08418
1608.68412,0.08218
1607.19433,0.08306
1605.70454,0.10084
1604.21475,0.09518
1602.72496,0.08956
1601.23518,0.09031
1599.74539,0.07487
1598.25560,0.08225
1596.76581,0.08132
1595.27602,0.09027
1593.78623,0.08852
1592.29645,0.08788
1590.80666,0.08245
1589.31687,0.07199
1587.82708,0.07998
1586.33729,0.08426
1584.84750,0.08746
1583.35771,0.07163
1581.86793,0.08738
1580.37814,0.08189
1578.88835,0.07029
1577.39856,0.06770
1575.90877,0.07127
1574.41898,0.06347
1572.92920,0.07104
1571.43941,0.04991
1569.94962,0.05468
1568.45983,0.05946
1566.97004,0.05200
1565.48025,0.03755
1563.99047,0.04460
1562.50068,0.02800
1561.01089,0.04014
1559.52110,0.03368
1558.03131,0.02066
1556.54152,0.02082
1555.05173,0.02385
1553.56195,0.02778
1552.07216,0.02077
1550.58237,0.02322
1549.09258,0.01034
1547.60279,0.01262
1546.11300,0.01470
1544.62322,0.00825
1543.13343,0.00709
1541.64364,0.00770
1540.15385,0.00858
1538.66406,0.00949
1537.17427,0.01317
1535.68448,0.01621
1534.19470,0.01796
1532.70491,0.02389
1531.21512,0.02613
1529.72533,0.02685
1528.23554,0.03155
1526.74575,0.03429
1525.25597,0.03816
1523.76618,0.04183
1522.27639,0.04004
1520.78660,0.03258
1519.29681,0.03545
1517.80702,0.04009
1516.31724,0.03489
1514.82745,0.03213
1513.33766,0.03959
1511.84787,0.04706
1510.35808,0.05087
1508.86829,0.05469
1507.37850,0.05854
1505.88872,0.06241
1504.39893,0.06631
1502.90914,0.07023
1501.41935,0.07418
1499.92956,0.07815
1498.43977,0.08214
1496.94999,0.08615
1495.46020,0.09020
1493.97041,0.09426
1492.48062,0.09835
1490.99083,0.10014
1489.50104,0.11904
1488.01125,0.11627
1486.52147,0.11353
1485.03168,0.15092
1483.54189,0.17211
1482.05210,0.17250
1480.56231,0.18344
1479.07252,0.19550
1477.58274,0.22666
1476.09295,0.22978
1474.60316,0.24432
1473.11337,0.23653
1471.62358,0.24827
1470.13379,0.25521
1468.64401,0.24794
1467.15422,0.26085
1465.66443,0.28112
1464.17464,0.30142
1462.68485,0.31506
1461.19506,0.34757
1459.70527,0.38536
1458.21549,0.45299
1456.72570,0.51516
1455.23591,0.57713
1453.74612,0.61634
1452.25633,0.67946
1450.76654,0.71104
1449.27676,0.70890
1447.78697,0.72080
1446.29718,0.67969
1444.80739,0.67061
1443.31760,0.66154
1441.82781,0.62204
1440.33802,0.58519
1438.84824,0.51965
1437.35845,0.48811
1435.86866,0.48092
1434.37887,0.48844
1432.88908,0.51593
1431.39929,0.56755
1429.90951,0.65754
1428.41972,0.70483
1426.92993,0.78304
1425.44014,0.83760
1423.95035,0.86227
1422.46056,0.88697
1420.97078,0.93459
1419.48099,0.96909
1417.99120,0.94049
1416.50141,0.95619
1415.01162,0.92654
1413.52183,0.88420
1412.03204,0.83904
1410.54226,0.79171
1409.05247,0.68107
1407.56268,0.63225
1406.07289,0.56286
1404.58310,0.53382
1403.09331,0.50480
1401.60353,0.44184
1400.11374,0.40498
1398.62395,0.35477
1397.13416,0.32410
1395.64437,0.28051
1394.15458,0.23739
1392.66479,0.20416
1391.17501,0.16920
1389.68522,0.13777
1388.19543,0.13025
1386.70564,0.10412
1385.21585,0.07802
1383.72606,0.06948
1382.23628,0.03817
1380.74649,0.01981
1379.25670,0.03567
1377.76691,0.01670
1376.27712,0.01573
1374.78733,0.01544
1373.29755,0.01101
1371.80776,0.00770
1370.31797,0.00923
1368.82818,0.01067
1367.33839,0.01214
1365.84860,0.01375
1364.35881,0.01888
1362.86903,0.02294
1361.37924,0.04193
1359.88945,0.06050
1358.39966,0.08086
1356.90987,0.12183
1355.42008,0.16634
1353.93030,0.23389
1352.44051,0.25587
1350.95072,0.27788
1349.46093,0.35514
1347.97114,0.45412
1346.48135,0.53164
1344.99156,0.60722
1343.50178,0.66310
1342.01199,0.71287
1340.52220,0.76090
1339.03241,0.78726
1337.54262,0.85310
1336.05283,0.88521
1334.56305,0.91734
1333.07326,0.94884
1331.58347,0.96809
1330.09368,0.93191
1328.60389,0.91746
1327.11410,0.91333
1325.62432,0.88204
1324.13453,0.86525
1322.64474,0.85242
1321.15495,0.79119
1319.66516,0.75901
1318.17537,0.72686
1316.68558,0.66394
1315.19580,0.63064
1313.70601,0.56316
1312.21622,0.50843
1310.72643,0.47431
1309.23664,0.46412
1307.74685,0.42370
1306.25707,0.38374
1304.76728,0.36408
1303.27749,0.34444
1301.78770,0.32077
1300.29791,0.27083
1298.80812,0.23428
1297.31834,0.18526
1295.82855,0.15533
1294.33876,0.13113
1292.84897,0.11374
1291.35918,0.09989
1289.86939,0.09537
1288.37960,0.09088
1286.88982,0.09506
1285.40003,0.08459
1283.91024,0.06603
1282.42045,0.06021
1280.93066,0.06537
1279.44087,0.05456
1277.95109,0.05209
1276.46130,0.04812
1274.97151,0.04209
1273.48172,0.03608
1271.99193,0.03920
1270.50214,0.02896
1269.01235,0.02292
1267.52257,0.03596
1266.03278,0.02756
1264.54299,0.01873
1263.05320,0.01870
1261.56341,0.01639
1260.07362,0.01411
1258.58384,0.01086
1257.09405,0.01619
1255.60426,0.01036
1254.11447,0.01069
1252.62468,0.01521
1251.13489,0.00770
1249.64511,0.01256
1248.15532,0.01394
1246.66553,0.01501
1245.17574,0.01611
1243.68595,0.01625
1242.19616,0.02145
1240.70637,0.03412
1239.21659,0.02227
1237.72680,0.02338
1236.23701,0.01750
1234.74722,0.00770
1233.25743,0.01183
1231.76764,0.01598
1230.27786,0.03243
1228.78807,0.02194
1227.29828,0.01806
1225.80849,0.01814
1224.31870,0.02527
1222.82891,0.02123
1221.33912,0.02424
1219.84934,0.03198
1218.35955,0.03974
1216.86976,0.05268
1215.37997,0.04263
1213.89018,0.05146
1212.40039,0.06666
1210.91061,0.06830
1209.42082,0.05988
1207.93103,0.06376
1206.44124,0.06766
1204.95145,0.05909
1203.46166,0.06480
1201.97188,0.07009
1200.48209,0.07540
1198.99230,0.05203
1197.50251,0.04095
1196.01272,0.02836
1194.52293,0.02928
1193.03314,0.03022
1191.54336,0.02735
1190.05357,0.02209
1188.56378,0.02825
1187.07399,0.01537
1185.58420,0.02005
1184.09441,0.01116
1182.60463,0.00942
1181.11484,0.00770
1179.62505,0.01183
1178.13526,0.02191
1176.64547,0.02390
1175.15568,0.01781
1173.66589,0.02467
1172.17611,0.00942
1170.68632,0.00855
1169.19653,0.00770
1167.70674,0.01221
1166.21695,0.01588
1164.72716,0.03205
1163.23738,0.03357
1161.74759,0.03796
1160.25780,0.03887
1158.76801,0.04726
1157.27822,0.05567
1155.78843,0.07747
1154.29865,0.07847
1152.80886,0.09484
1151.31907,0.09085
1149.82928,0.10749
1148.33949,0.12897
1146.84970,0.13350
1145.35991,0.13804
1143.87013,0.14075
1142.38034,0.13055
1140.89055,0.13615
1139.40076,0.16260
1137.91097,0.18469
1136.42118,0.19278
1134.93140,0.18949
1133.44161,0.18623
1131.95182,0.19592
1130.46203,0.19599
1128.97224,0.23379
1127.48245,0.23391
1125.99266,0.24874
1124.50288,0.25044
1123.01309,0.24132
1121.52330,0.23222
1120.03351,0.21712
1118.54372,0.21256
1117.05393,0.20825
1115.56415,0.23157
1114.07436,0.24462
1112.58457,0.23808
1111.09478,0.23156
1109.60499,0.21926
1108.11520,0.23043
1106.62542,0.21094
1105.13563,0.21252
1103.64584,0.20338
1102.15605,0.21333
1100.66626,0.20511
1099.17647,0.19692
1097.68668,0.18876
1096.19690,0.19815
1094.70711,0.19419
1093.21732,0.17931
1091.72753,0.17649
1090.23774,0.17579
1088.74795,0.17511
1087.25817,0.15791
1085.76838,0.14314
1084.27859,0.15623
1082.78880,0.15860
1081.29901,0.16056
1079.80922,0.15531
1078.31943,0.16214
1076.82965,0.16899
1075.33986,0.17938
1073.85007,0.18496
1072.36028,0.20460
1070.87049,0.21133
1069.38070,0.21677
1067.89092,0.22048
1066.40113,0.22421
1064.91134,0.27641
1063.42155,0.36676
1061.93176,0.45122
1060.44197,0.54184
1058.95219,0.63095
1057.46240,0.67318
1055.97261,0.71543
1054.48282,0.77240
1052.99303,0.84188
1051.50324,0.86777
1050.01345,0.87505
1048.52367,0.87820
1047.03388,0.90219
1045.54409,0.92620
1044.05430,0.83496
1042.56451,0.74242
1041.07472,0.69988
1039.58494,0.62646
1038.09515,0.58440
1036.60536,0.54872
1035.11557,0.51307
1033.62578,0.45092
1032.13599,0.38661
1030.64620,0.35256
1029.15642,0.29334
1027.66663,0.26931
1026.17684,0.24531
1024.68705,0.18309
1023.19726,0.17568
1021.70747,0.15339
1020.21769,0.12214
1018.72790,0.11722
1017.23811,0.11418
1015.74832,0.11117
1014.25853,0.08791
1012.76874,0.08308
1011.27896,0.09099
1009.78917,0.06823
1008.29938,0.07312
1006.80959,0.05557
1005.31980,0.03804
1003.83001,0.01604
1002.34022,0.01050
1000.85044,0.02208
999.36065,0.03128
997.87086,0.03480
996.38107,0.03835
994.89128,0.04104
993.40149,0.06918
991.91171,0.07301
990.42192,0.08761
988.93213,0.08886
987.44234,0.09661
985.95255,0.10437
984.46276,0.09671
982.97297,0.09675
981.48319,0.07577
979.99340,0.05722
978.50361,0.05250
977.01382,0.04781
975.52403,0.03986
974.03424,0.03982
972.54446,0.02534
971.05467,0.00803
969.56488,0.00762
968.07509,0.00851
966.58530,0.00941
965.09551,0.00805
963.60573,0.00798
962.11594,0.01226
960.62615,0.00954
959.13636,0.00861
957.64657,0.00770
956.15678,0.01788
954.66699,0.01888
953.17721,0.03262
951.68742,0.04353
950.19763,0.05118
948.70784,0.05885
947.21805,0.06918
945.72826,0.08457
944.23848,0.09253
942.74869,0.10183
941.25890,0.12299
939.76911,0.13136
938.27932,0.13974
936.78953,0.15221
935.29974,0.17741
933.80996,0.18708
932.32017,0.22460
930.83038,0.23135
929.34059,0.23813
927.85080,0.24570
926.36101,0.27959
924.87123,0.29028
923.38144,0.33343
921.89165,0.35851
920.40186,0.38363
918.91207,0.44876
917.42228,0.58362
915.93250,0.72003
914.44271,0.94128
912.95292,1.04586
911.46313,1.15045
909.97334,1.40268
908.48355,1.60694
906.99376,1.85900
905.50398,1.92194
904.01419,1.95619
902.52440,1.99047
901.03461,2.00000
899.54482,1.95433
898.05503,1.81334
896.56525,1.67435
895.07546,1.54295
893.58567,1.41157
892.09588,1.14400
890.60609,0.90100
889.11630,0.68498
887.62651,0.51939
886.13673,0.45213
884.64694,0.38489
883.15715,0.27395
881.66736,0.18693
880.17757,0.15603
878.68778,0.14149
877.19800,0.12697
875.70821,0.07861
874.21842,0.03904
872.72863,0.03084
871.23884,0.01302
869.74905,0.01035
868.25927,0.00770
866.76948,0.02805
865.27969,0.03111
863.78990,0.02301
862.30011,0.03708
860.81032,0.04197
859.32053,0.04688
857.83075,0.06233
856.34096,0.07320
854.85117,0.09309
853.36138,0.12461
851.87159,0.11890
850.38180,0.11322
848.89202,0.11698
847.40223,0.15057
845.91244,0.17323
844.42265,0.18145
842.93286,0.18969
841.44307,0.21001
839.95329,0.22619
838.46350,0.23537
836.97371,0.23078
835.48392,0.22731
833.99413,0.22386
832.50434,0.23051
831.01455,0.23303
829.52477,0.21014
828.03498,0.18027
826.54519,0.17047
825.05540,0.16070
823.56561,0.13923
822.07582,0.12939
820.58604,0.11432
819.09625,0.12098
817.60646,0.12765
816.11667,0.12142
814.62688,0.13187
813.13709,0.12547
811.64730,0.12391
810.15752,0.11909
808.66773,0.11430
807.17794,0.12355
805.68815,0.12056
804.19836,0.13402
802.70857,0.13666
801.21879,0.13933
799.72900,0.13446
798.23921,0.12150
796.74942,0.12435
795.25963,0.11834
793.76984,0.11236
792.28006,0.13281
790.79027,0.15110
789.30048,0.17270
787.81069,0.20111
786.32090,0.19766
784.83111,0.19423
783.34132,0.22623
781.85154,0.26920
780.36175,0.31856
778.87196,0.33243
777.38217,0.34633
775.89238,0.38348
774.40259,0.37398
772.91281,0.36033
771.42302,0.35581
769.93323,0.35130
768.44344,0.29127
766.95365,0.23213
765.46386,0.20545
763.97407,0.17004
762.48429,0.16028
760.99450,0.15056
759.50471,0.14173
758.01492,0.10926
756.52513,0.09916
755.03534,0.08931
753.54556,0.07948
752.05577,0.07406
750.56598,0.07086
749.07619,0.06264
747.58640,0.05061
746.09661,0.03860
744.60683,0.04141
743.11704,0.03438
741.62725,0.02540
740.13746,0.02466
738.64767,0.02395
737.15788,0.01702
735.66809,0.00770
734.17831,0.00750
732.68852,0.00941
731.19873,0.01135
729.70894,0.01364
728.21915,0.01792
726.72936,0.01784
725.23958,0.01516
723.74979,0.01382
722.26000,0.01250
720.77021,0.00770
719.28042,0.01523
717.79063,0.01971
716.30084,0.01666
714.81106,0.01363
713.32127,0.01358
711.83148,0.02145
710.34169,0.03154
708.85190,0.02981
707.36211,0.02811
705.87233,0.04571
704.38254,0.04406
702.89275,0.05251
701.40296,0.05726
699.91317,0.06203
698.42338,0.05915
696.93360,0.09005
695.44381,0.08701
693.95402,0.10831
692.46423,0.12964
690.97444,0.11768
689.48465,0.16470
687.99486,0.17427
686.50508,0.18945
685.01529,0.20465
683.52550,0.22547
682.03571,0.25332
680.54592,0.27550
679.05613,0.27776
677.56635,0.28004
676.07656,0.26635
674.58677,0.25378
673.09698,0.21164
671.60719,0.20153
670.11740,0.19143
668.62761,0.17348
667.13783,0.15248
665.64804,0.14783
664.15825,0.14320
662.66846,0.12315
661.17867,0.10926
659.68888,0.07654
658.19910,0.06818
656.70931,0.05984
655.21952,0.04495
653.72973,0.05309
652.23994,0.04986
650.75015,0.04348
649.26037,0.03713
647.77058,0.03200
646.28079,0.03018
644.79100,0.03277
643.30121,0.03023
641.81142,0.02772
640.32163,0.02644
638.83185,0.04710
637.34206,0.03074
635.85227,0.02843
634.36248,0.02615
632.87269,0.01535
631.38290,0.01004
629.89312,0.04114
628.40333,0.03556
626.91354,0.03000
625.42375,0.00770
623.93396,0.02225
622.44417,0.02663
620.95438,0.03104
619.46460,0.03383
617.97481,0.05724
616.48502,0.07783
614.99523,0.09691
613.50544,0.11601
612.01565,0.12198
610.52587,0.14815
609.03608,0.17543
607.54629,0.20515
606.05650,0.23489
604.56671,0.29578
603.07692,0.32118
601.58714,0.35056
600.09735,0.37996
598.60756,0.41705
597.11777,0.43729
595.62798,0.43674
594.13819,0.41867
592.64840,0.40063
591.15862,0.37363
589.66883,0.31487
588.17904,0.25351
586.68925,0.22461
585.19946,0.19573
583.70967,0.14561
582.21989,0.11262
580.73010,0.09685
579.24031,0.08111
577.75052,0.07185
576.26073,0.04838
574.77094,0.05386
573.28115,0.05333
571.79137,0.05283
570.30158,0.05400
568.81179,0.06462
567.32200,0.07142
565.83221,0.07825
564.34242,0.07973
562.85264,0.10688
561.36285,0.11783
559.87306,0.12005
558.38327,0.12228
556.89348,0.13024
555.40369,0.13406
553.91391,0.14908
552.42412,0.16412
550.93433,0.16889
549.44454,0.16623
547.95475,0.19690
546.46496,0.20536
544.97517,0.21384
543.48539,0.23647
541.99560,0.26067
540.50581,0.26681
539.01602,0.27297
537.52623,0.31280
536.03644,0.35353
534.54666,0.38750
533.05687,0.41940
531.56708,0.45132
530.07729,0.47484
528.58750,0.52379
527.09771,0.55240
525.60792,0.58102
524.11814,0.66841
522.62835,0.73215
521.13856,0.75208
519.64877,0.79329
518.15898,0.83453
516.66919,0.83327
515.17941,0.86184
513.68962,0.85099
512.19983,0.84016
510.71004,0.75988
509.22025,0.71337
507.73046,0.69385
506.24068,0.65956
504.75089,0.62529
503.26110,0.50217
501.77131,0.39967
500.28152,0.35112
498.79173,0.30259
497.30194,0.22888
495.81216,0.19158
494.32237,0.18060
492.83258,0.16964
491.34279,0.12496
489.85300,0.08841
488.36321,0.07730
486.87343,0.08157
485.38364,0.08585
483.89385,0.08359
482.40406,0.10042
480.91427,0.09732
479.42448,0.09425
477.93469,0.11466
476.44491,0.13816
474.95512,0.15390
473.46533,0.16966
471.97554,0.16365
470.48575,0.19162
468.99596,0.18675
467.50618,0.18168
466.01639,0.17663
464.52660,0.13786
463.03681,0.08903
461.54702,0.07354
460.05723,0.05807
458.56745,0.01873
457.07766,0.02676
455.58787,0.02079
454.09808,0.01484
452.60829,0.02623
451.11850,0.01813
449.62871,0.01719
448.13893,0.01627
446.64914,0.02578
445.15935,0.00770
443.66956,0.01187
442.17977,0.01365
440.68998,0.01545
439.20020,0.03789
437.71041,0.05048
436.22062,0.04085
434.73083,0.03124
433.24104,0.03974
431.75125,0.03446
430.26146,0.03884
428.77168,0.04325
427.28189,0.03716
425.79210,0.04491
424.30231,0.04610
422.81252,0.04732
421.32273,0.04571
419.83295,0.03207
418.34316,0.03807
416.85337,0.04409
415.36358,0.03579
413.87379,0.03583
412.38400,0.02713
410.89422,0.01846
409.40443,0.03351
407.91464,0.04684
406.42485,0.03915
404.93506,0.04320
403.44527,0.04728
401.95548,0.04624
400.46570,0.04040
398.97591,0.02998
397.48612,0.01958
395.99633,0.01183
394.50654,0.02800
393.01675,0.03017
391.52697,0.02998
390.03718,0.03771
388.54739,0.02244
387.05760,0.02222
385.56781,0.02201
384.07802,0.00770
382.58824,0.01789
381.09845,0.01847
379.60866,0.01906
378.11887,0.02516
376.62908,0.01091
375.13929,0.01541
373.64950,0.01994
372.15972,0.03315
370.66993,0.03455
369.18014,0.04222
367.69035,0.04991
366.20056,0.05313
364.71077,0.03073
363.22099,0.03598
361.73120,0.04124
360.24141,0.04215
358.75162,0.03059
357.26183,0.03900
355.77204,0.04743
354.28225,0.04120
352.79247,0.04552
351.30268,0.05194
349.81289,0.05838
348.32310,0.07439
346.83331,0.08318
345.34352,0.07655
343.85374,0.06994
342.36395,0.04944
340.87416,0.05811
339.38437,0.04861
337.89458,0.03914
336.40479,0.03079
334.91501,0.06015
333.42522,0.05481
331.93543,0.04949
330.44564,0.00770
328.95585,0.02755
327.46606,0.03789
325.97627,0.04825
324.48649,0.03311
322.99670,0.06226
321.50691,0.07795
320.01712,0.09368
318.52733,0.10887
317.03754,0.08596
315.54776,0.08674
314.05797,0.08754
312.56818,0.07894
311.07839,0.08155
309.58860,0.07322
308.09881,0.06491
306.60902,0.02924
305.11924,0.02931
303.62945,0.02315
302.13966,0.01492
300.64987,0.00770
299.16008,0.00770
