1778.52000,0.00000
1777.03021,0.00406
1775.54042,0.00570
1774.05063,0.01007
1772.56085,0.01420
1771.07106,0.01809
1769.58127,0.00789
1768.09148,0.01019
1766.60169,0.01930
1765.11190,0.02166
1763.62212,0.01698
1762.13233,0.02643
1760.64254,0.02642
1759.15275,0.01693
1757.66296,0.01805
1756.17317,0.03004
1754.68339,0.02714
1753.19360,0.02481
1751.70381,0.03009
1750.21402,0.01641
1748.72423,0.02727
1747.23444,0.02270
1745.74465,0.02682
1744.25487,0.02799
1742.76508,0.03488
1741.27529,0.03447
1739.78550,0.02324
1738.29571,0.02722
1736.80592,0.02118
1735.31614,0.02706
1733.82635,0.02753
1732.33656,0.02043
1730.84677,0.02095
1729.35698,0.03180
1727.86719,0.02912
1726.37740,0.02998
1724.88762,0.03169
1723.39783,0.04074
1721.90804,0.03516
1720.41825,0.02392
1718.92846,0.02165
1717.43867,0.01805
1715.94889,0.03035
1714.45910,0.03264
1712.96931,0.02708
1711.47952,0.02698
1709.98973,0.02852
1708.49994,0.03063
1707.01016,0.03291
1705.52037,0.03520
1704.03058,0.03522
1702.54079,0.02468
1701.05100,0.01932
1699.56121,0.01805
1698.07142,0.02704
1696.58164,0.02955
1695.09185,0.02964
1693.60206,0.02541
1692.11227,0.03884
1690.62248,0.03114
1689.13269,0.03322
1687.64291,0.04049
1686.15312,0.04940
1684.66333,0.03962
1683.17354,0.05917
1681.68375,0.04076
1680.19396,0.03811
1678.70417,0.04063
1677.21439,0.04427
1675.72460,0.03220
1674.23481,0.05432
1672.74502,0.05641
1671.25523,0.06936
1669.76544,0.07176
1668.27566,0.07147
1666.78587,0.07528
1665.29608,0.07423
1663.80629,0.07971
1662.31650,0.09633
1660.82671,0.09671
1659.33693,0.10850
1657.84714,0.10269
1656.35735,0.09826
1654.86756,0.09656
1653.37777,0.09353
1651.88798,0.10327
1650.39819,0.10979
1648.90841,0.11144
1647.41862,0.10933
1645.92883,0.10181
1644.43904,0.09431
1642.94925,0.09281
1641.45946,0.09920
1639.96968,0.08825
1638.47989,0.10771
1636.99010,0.10630
1635.50031,0.10275
1634.01052,0.10682
1632.52073,0.12529
1631.03094,0.12018
1629.54116,0.09801
1628.05137,0.12008
1626.56158,0.13647
1625.07179,0.10787
1623.58200,0.12160
1622.09221,0.11935
1620.60243,0.12716
1619.11264,0.11954
1617.62285,0.11221
1616.13306,0.10491
1614.64327,0.10441
1613.15348,0.10176
1611.66370,0.12383
1610.17391,0.12042
1608.68412,0.12463
1607.19433,0.11421
1605.70454,0.10735
1604.21475,0.11367
1602.72496,0.12001
1601.23518,0.12027
1599.74539,0.11893
1598.25560,0.10757
1596.76581,0.12283
1595.27602,0.12237
1593.78623,0.09889
1592.29645,0.11421
1590.80666,0.09837
1589.31687,0.10208
1587.82708,0.11151
1586.33729,0.10388
1584.84750,0.09437
1583.35771,0.12151
1581.86793,0.09632
1580.37814,0.09583
1578.88835,0.07883
1577.39856,0.09060
1575.90877,0.09914
1574.41898,0.06919
1572.92920,0.07778
1571.43941,0.07310
1569.94962,0.07035
1568.45983,0.06762
1566.97004,0.05704
1565.48025,0.05816
1563.99047,0.05442
1562.50068,0.03171
1561.01089,0.02910
1559.52110,0.04469
1558.03131,0.05895
1556.54152,0.03417
1555.05173,0.04115
1553.56195,0.03839
1552.07216,0.03186
1550.58237,0.04027
1549.09258,0.03053
1547.60279,0.01838
1546.11300,0.01357
1544.62322,0.01805
1543.13343,0.02256
1541.64364,0.02031
1540.15385,0.02255
1538.66406,0.02483
1537.17427,0.03974
1535.68448,0.01805
1534.19470,0.03146
1532.70491,0.03594
1531.21512,0.04478
1529.72533,0.03954
1528.23554,0.04220
1526.74575,0.03429
1525.25597,0.05517
1523.76618,0.04732
1522.27639,0.04410
1520.78660,0.05067
1519.29681,0.05971
1517.80702,0.04517
1516.31724,0.05507
1514.82745,0.05767
1513.33766,0.06070
1511.84787,0.06376
1510.35808,0.07593
1508.86829,0.05557
1507.37850,0.05097
1505.88872,0.06185
1504.39893,0.06706
1502.90914,0.06986
1501.41935,0.09220
1499.92956,0.09125
1498.43977,0.09357
1496.94999,0.09267
1495.46020,0.10508
1493.97041,0.10802
1492.48062,0.12156
1490.99083,0.14028
1489.50104,0.13705
1488.01125,0.14701
1486.52147,0.15698
1485.03168,0.18150
1483.54189,0.18678
1482.05210,0.20429
1480.56231,0.23782
1479.07252,0.26460
1477.58274,0.28381
1476.09295,0.27158
1474.60316,0.28216
1473.11337,0.29005
1471.62358,0.28902
1470.13379,0.27933
1468.64401,0.30438
1467.15422,0.29121
1465.66443,0.31156
1464.17464,0.33194
1462.68485,0.38530
1461.19506,0.42403
1459.70527,0.48639
1458.21549,0.55148
1456.72570,0.58595
1455.23591,0.62315
1453.74612,0.68723
1452.25633,0.73561
1450.76654,0.78129
1449.27676,0.77384
1447.78697,0.75149
1446.29718,0.75467
1444.80739,0.73427
1443.31760,0.71389
1441.82781,0.66452
1440.33802,0.61219
1438.84824,0.56883
1437.35845,0.52387
1435.86866,0.52125
1434.37887,0.55255
1432.88908,0.57683
1431.39929,0.63748
1429.90951,0.71198
1428.41972,0.81011
1426.92993,0.87896
1425.44014,0.89957
1423.95035,0.90961
1422.46056,0.91969
1420.97078,0.97210
1419.48099,1.00581
1417.99120,1.03494
1416.50141,1.00877
1415.01162,0.99645
1413.52183,0.93018
1412.03204,0.85796
1410.54226,0.77628
1409.05247,0.71225
1407.56268,0.66723
1406.07289,0.58318
1404.58310,0.56791
1403.09331,0.55267
1401.60353,0.48741
1400.11374,0.41837
1398.62395,0.37784
1397.13416,0.35578
1395.64437,0.28573
1394.15458,0.22791
1392.66479,0.22301
1391.17501,0.19019
1389.68522,0.15604
1388.19543,0.12354
1386.70564,0.10219
1385.21585,0.08087
1383.72606,0.07041
1382.23628,0.03422
1380.74649,0.03764
1379.25670,0.03893
1377.76691,0.04539
1376.27712,0.03153
1374.78733,0.01715
1373.29755,0.02857
1371.80776,0.02292
1370.31797,0.02136
1368.82818,0.01969
1367.33839,0.01805
1365.84860,0.02681
1364.35881,0.04129
1362.86903,0.04414
1361.37924,0.07141
1359.88945,0.10333
1358.39966,0.11953
1356.90987,0.12762
1355.42008,0.21033
1353.93030,0.24858
1352.44051,0.27804
1350.95072,0.30752
1349.46093,0.39276
1347.97114,0.44765
1346.48135,0.57634
1344.99156,0.63264
1343.50178,0.66455
1342.01199,0.70570
1340.52220,0.76560
1339.03241,0.83962
1337.54262,0.88817
1336.05283,0.90705
1334.56305,0.92595
1333.07326,0.98596
1331.58347,0.96761
1330.09368,0.92976
1328.60389,0.94455
1327.11410,0.93035
1325.62432,0.89935
1324.13453,0.87706
1322.64474,0.84339
1321.15495,0.78670
1319.66516,0.75960
1318.17537,0.73252
1316.68558,0.66369
1315.19580,0.59760
1313.70601,0.57005
1312.21622,0.56992
1310.72643,0.51367
1309.23664,0.47724
1307.74685,0.46363
1306.25707,0.43023
1304.76728,0.40174
1303.27749,0.37328
1301.78770,0.35162
1300.29791,0.29038
1298.80812,0.24382
1297.31834,0.20243
1295.82855,0.16731
1294.33876,0.13573
1292.84897,0.11992
1291.35918,0.10819
1289.86939,0.11222
1288.37960,0.11628
1286.88982,0.10571
1285.40003,0.10222
1283.91024,0.07760
1282.42045,0.07768
1280.93066,0.07860
1279.44087,0.07602
1277.95109,0.06642
1276.46130,0.06822
1274.97151,0.06246
1273.48172,0.05672
1271.99193,0.03880
1270.50214,0.04722
1269.01235,0.03776
1267.52257,0.03402
1266.03278,0.02135
1264.54299,0.04803
1263.05320,0.04029
1261.56341,0.03421
1260.07362,0.02815
1258.58384,0.02726
1257.09405,0.02613
1255.60426,0.02692
1254.11447,0.02693
1252.62468,0.02912
1251.13489,0.01805
1249.64511,0.02396
1248.15532,0.03450
1246.66553,0.03069
1245.17574,0.02690
1243.68595,0.02748
1242.19616,0.04625
1240.70637,0.03901
1239.21659,0.03342
1237.72680,0.03952
1236.23701,0.03588
1234.74722,0.03579
1233.25743,0.02691
1231.76764,0.01805
1230.27786,0.03175
1228.78807,0.02052
1227.29828,0.05217
1225.80849,0.03909
1224.31870,0.02495
1222.82891,0.03389
1221.33912,0.03091
1219.84934,0.03936
1218.35955,0.04783
1216.86976,0.04818
1215.37997,0.04748
1213.89018,0.08097
1212.40039,0.07652
1210.91061,0.08049
1209.42082,0.09887
1207.93103,0.09259
1206.44124,0.08634
1204.95145,0.09204
1203.46166,0.08855
1201.97188,0.08155
1200.48209,0.09600
1198.99230,0.08851
1197.50251,0.07020
1196.01272,0.05326
1194.52293,0.04802
1193.03314,0.04279
1191.54336,0.04519
1190.05357,0.04381
1188.56378,0.04436
1187.07399,0.03028
1185.58420,0.03820
1184.09441,0.02200
1182.60463,0.02644
1181.11484,0.03090
1179.62505,0.03891
1178.13526,0.03041
1176.64547,0.04634
1175.15568,0.03191
1173.66589,0.01805
1172.17611,0.02223
1170.68632,0.02887
1169.19653,0.03554
1167.70674,0.04766
1166.21695,0.04949
1164.72716,0.05217
1163.23738,0.04971
1161.74759,0.06030
1160.25780,0.06114
1158.76801,0.06662
1157.27822,0.07213
1155.78843,0.10126
1154.29865,0.11007
1152.80886,0.11320
1151.31907,0.14647
1149.82928,0.12823
1148.33949,0.14880
1146.84970,0.16465
1145.35991,0.18052
1143.87013,0.18814
1142.38034,0.18494
1140.89055,0.19533
1139.40076,0.21116
1137.91097,0.21752
1136.42118,0.27029
1134.93140,0.26938
1133.44161,0.26849
1131.95182,0.27685
1130.46203,0.27954
1128.97224,0.28849
1127.48245,0.27767
1125.99266,0.30837
1124.50288,0.29650
1123.01309,0.29958
1121.52330,0.30269
1120.03351,0.29551
1118.54372,0.26937
1117.05393,0.29533
1115.56415,0.29419
1114.07436,0.29145
1112.58457,0.29497
1111.09478,0.29852
1109.60499,0.29721
1108.11520,0.29077
1106.62542,0.26292
1105.13563,0.27470
1103.64584,0.26101
1102.15605,0.25846
1100.66626,0.25648
1099.17647,0.25453
1097.68668,0.24310
1096.19690,0.24933
1094.70711,0.25233
1093.21732,0.26105
1091.72753,0.26247
1090.23774,0.26202
1088.74795,0.26159
1087.25817,0.22619
1085.76838,0.22174
1084.27859,0.21487
1082.78880,0.23814
1081.29901,0.23919
1079.80922,0.25138
1078.31943,0.24678
1076.82965,0.24220
1075.33986,0.25013
1073.85007,0.25835
1072.36028,0.27202
1070.87049,0.27107
1069.38070,0.30133
1067.89092,0.30870
1066.40113,0.31609
1064.91134,0.42210
1063.42155,0.54469
1061.93176,0.62281
1060.44197,0.72998
1058.95219,0.84585
1057.46240,0.88824
1055.97261,0.93066
1054.48282,1.00131
1052.99303,1.03021
1051.50324,1.04639
1050.01345,1.04714
1048.52367,1.10215
1047.03388,1.07975
1045.54409,1.05738
1044.05430,0.99041
1042.56451,0.87600
1041.07472,0.80474
1039.58494,0.78043
1038.09515,0.69593
1036.60536,0.65946
1035.11557,0.62301
1033.62578,0.53316
1032.13599,0.45255
1030.64620,0.43001
1029.15642,0.35054
1027.66663,0.32113
1026.17684,0.29175
1024.68705,0.26198
1023.19726,0.20892
1021.70747,0.20605
1020.21769,0.18450
1018.72790,0.16704
1017.23811,0.15733
1015.74832,0.14765
1014.25853,0.13568
1012.76874,0.10801
1011.27896,0.11264
1009.78917,0.11295
1008.29938,0.11275
1006.80959,0.09494
1005.31980,0.07715
1003.83001,0.03769
1002.34022,0.01805
1000.85044,0.05356
999.36065,0.06659
997.87086,0.06431
996.38107,0.06206
994.89128,0.08085
993.40149,0.09099
991.91171,0.13045
990.42192,0.13467
988.93213,0.14406
987.44234,0.15647
985.95255,0.16890
984.46276,0.16670
982.97297,0.13145
981.48319,0.12849
979.99340,0.09924
978.50361,0.09226
977.01382,0.08531
975.52403,0.06862
974.03424,0.04516
972.54446,0.03747
971.05467,0.02627
969.56488,0.02215
968.07509,0.02009
966.58530,0.01805
965.09551,0.02473
963.60573,0.02383
962.11594,0.01835
960.62615,0.01751
959.13636,0.02386
957.64657,0.03024
956.15678,0.02878
954.66699,0.04064
953.17721,0.05577
951.68742,0.07038
950.19763,0.08529
948.70784,0.10023
947.21805,0.08969
945.72826,0.07646
944.23848,0.07520
942.74869,0.10786
941.25890,0.12481
939.76911,0.13542
938.27932,0.14604
936.78953,0.16199
935.29974,0.19721
933.80996,0.22134
932.32017,0.25308
930.83038,0.26627
929.34059,0.27949
927.85080,0.29965
926.36101,0.32444
924.87123,0.34247
923.38144,0.40637
921.89165,0.45090
920.40186,0.49545
918.91207,0.62696
917.42228,0.73923
915.93250,0.89140
914.44271,1.08808
912.95292,1.19311
911.46313,1.29815
909.97334,1.51769
908.48355,1.79393
906.99376,1.94842
905.50398,1.98467
904.01419,1.96277
902.52440,1.94089
901.03461,1.97233
899.54482,2.00000
898.05503,1.86170
896.56525,1.68192
895.07546,1.55479
893.58567,1.42768
892.09588,1.11398
890.60609,0.90474
889.11630,0.69877
887.62651,0.51453
886.13673,0.45060
884.64694,0.38670
883.15715,0.27848
881.66736,0.21612
880.17757,0.14998
878.68778,0.13459
877.19800,0.11923
875.70821,0.07053
874.21842,0.03487
872.72863,0.03178
871.23884,0.03604
869.74905,0.02812
868.25927,0.02023
866.76948,0.01805
865.27969,0.04366
863.78990,0.04651
862.30011,0.07217
860.81032,0.06992
859.32053,0.06769
857.83075,0.08094
856.34096,0.09477
854.85117,0.12706
853.36138,0.12329
851.87159,0.13339
850.38180,0.14351
848.89202,0.16071
847.40223,0.18092
845.91244,0.20359
844.42265,0.21435
842.93286,0.22513
841.44307,0.23757
839.95329,0.25491
838.46350,0.28612
836.97371,0.27611
835.48392,0.26898
833.99413,0.26188
832.50434,0.25574
831.01455,0.25886
829.52477,0.26715
828.03498,0.21606
826.54519,0.20379
825.05540,0.19154
823.56561,0.17687
822.07582,0.16250
820.58604,0.14870
819.09625,0.15024
817.60646,0.15181
816.11667,0.13970
814.62688,0.14607
813.13709,0.13320
811.64730,0.11439
810.15752,0.12421
808.66773,0.13407
807.17794,0.15683
805.68815,0.17608
804.19836,0.15712
802.70857,0.16259
801.21879,0.16809
799.72900,0.15625
798.23921,0.13929
796.74942,0.13672
795.25963,0.14164
793.76984,0.14658
792.28006,0.17419
790.79027,0.18447
789.30048,0.19531
787.81069,0.22056
786.32090,0.22562
784.83111,0.23071
783.34132,0.26226
781.85154,0.29520
780.36175,0.35013
778.87196,0.38447
777.38217,0.41884
775.89238,0.39437
774.40259,0.41169
772.91281,0.42959
771.42302,0.40451
769.93323,0.37946
768.44344,0.32393
766.95365,0.25132
765.46386,0.24113
763.97407,0.21441
762.48429,0.18948
760.99450,0.16458
759.50471,0.14499
758.01492,0.12868
756.52513,0.09910
755.03534,0.09355
753.54556,0.08803
752.05577,0.09161
750.56598,0.07624
749.07619,0.06143
747.58640,0.05749
746.09661,0.05358
744.60683,0.05566
743.11704,0.03715
741.62725,0.03223
740.13746,0.03153
738.64767,0.03086
737.15788,0.02682
735.66809,0.04152
734.17831,0.03102
732.68852,0.02516
731.19873,0.01932
729.70894,0.02302
728.21915,0.02241
726.72936,0.04186
725.23958,0.02174
723.74979,0.02212
722.26000,0.02252
720.77021,0.02987
719.28042,0.04836
717.79063,0.01805
716.30084,0.02744
714.81106,0.03685
713.32127,0.04954
711.83148,0.06768
710.34169,0.07120
708.85190,0.06050
707.36211,0.04983
705.87233,0.05993
704.38254,0.07331
702.89275,0.07477
701.40296,0.07152
699.91317,0.06829
698.42338,0.08502
696.93360,0.10558
695.44381,0.12995
693.95402,0.13712
692.46423,0.14432
690.97444,0.15629
689.48465,0.19188
687.99486,0.21123
686.50508,0.21798
685.01529,0.22476
683.52550,0.25692
682.03571,0.29236
680.54592,0.31644
679.05613,0.31938
677.56635,0.32234
676.07656,0.27516
674.58677,0.25403
673.09698,0.25544
671.60719,0.24332
670.11740,0.23122
668.62761,0.22917
667.13783,0.19461
665.64804,0.18448
664.15825,0.17437
662.66846,0.18219
661.17867,0.13687
659.68888,0.11518
658.19910,0.11819
656.70931,0.12122
655.21952,0.08685
653.72973,0.07312
652.23994,0.07677
650.75015,0.06783
649.26037,0.05892
647.77058,0.07620
646.28079,0.04604
644.79100,0.05741
643.30121,0.06460
641.81142,0.07181
640.32163,0.10467
638.83185,0.07843
637.34206,0.06931
635.85227,0.05519
634.36248,0.04109
632.87269,0.03122
631.38290,0.04443
629.89312,0.06147
628.40333,0.05452
626.91354,0.04760
625.42375,0.01805
623.93396,0.03360
622.44417,0.03981
620.95438,0.04605
619.46460,0.06031
617.97481,0.07867
616.48502,0.12282
614.99523,0.13770
613.50544,0.15260
612.01565,0.18407
610.52587,0.20526
609.03608,0.23109
607.54629,0.25260
606.05650,0.27413
604.56671,0.34668
603.07692,0.40542
601.58714,0.42242
600.09735,0.43944
598.60756,0.49310
597.11777,0.51153
595.62798,0.51560
594.13819,0.50451
592.64840,0.49344
591.15862,0.47182
589.66883,0.39598
588.17904,0.33046
586.68925,0.29169
585.19946,0.25294
583.70967,0.19835
582.21989,0.16576
580.73010,0.15448
579.24031,0.14322
577.75052,0.12236
576.26073,0.11834
574.77094,0.12167
573.28115,0.11255
571.79137,0.10345
570.30158,0.11851
568.81179,0.12438
567.32200,0.12200
565.83221,0.11964
564.34242,0.16952
562.85264,0.18932
561.36285,0.18689
559.87306,0.19169
558.38327,0.19650
556.89348,0.20609
555.40369,0.22167
553.91391,0.22520
552.42412,0.22876
550.93433,0.26149
549.44454,0.25222
547.95475,0.27009
546.46496,0.28323
544.97517,0.29640
543.48539,0.31679
541.99560,0.33394
540.50581,0.35980
539.01602,0.38568
537.52623,0.43328
536.03644,0.46925
534.54666,0.51744
533.05687,0.54179
531.56708,0.56617
530.07729,0.57538
528.58750,0.61987
527.09771,0.64296
525.60792,0.66608
524.11814,0.74292
522.62835,0.79891
521.13856,0.87851
519.64877,0.90199
518.15898,0.92550
516.66919,0.91920
515.17941,0.96554
513.68962,0.94952
512.19983,0.93352
510.71004,0.86493
509.22025,0.84221
507.73046,0.80106
506.24068,0.75844
504.75089,0.71585
503.26110,0.57903
501.77131,0.44902
500.28152,0.40297
498.79173,0.35695
497.30194,0.25386
495.81216,0.24248
494.32237,0.22053
492.83258,0.19862
491.34279,0.14363
489.85300,0.12420
488.36321,0.13192
486.87343,0.13356
485.38364,0.13523
483.89385,0.11400
482.40406,0.14948
480.91427,0.13793
479.42448,0.12640
477.93469,0.16385
476.44491,0.19374
474.95512,0.21930
473.46533,0.24490
471.97554,0.23390
470.48575,0.24842
468.99596,0.22933
467.50618,0.21786
466.01639,0.20641
464.52660,0.14183
463.03681,0.11443
461.54702,0.09126
460.05723,0.06811
458.56745,0.06112
457.07766,0.05633
455.58787,0.04709
454.09808,0.03787
452.60829,0.04590
451.11850,0.06210
449.62871,0.05268
448.13893,0.04329
446.64914,0.05413
445.15935,0.03841
443.66956,0.03113
442.17977,0.02617
440.68998,0.02124
439.20020,0.04115
437.71041,0.06814
436.22062,0.05962
434.73083,0.05113
433.24104,0.05242
431.75125,0.05591
430.26146,0.05847
428.77168,0.06106
427.28189,0.05892
425.79210,0.07227
424.30231,0.07100
422.81252,0.06975
421.32273,0.06771
419.83295,0.06326
418.34316,0.06005
416.85337,0.05686
415.36358,0.05574
413.87379,0.02941
412.38400,0.02372
410.89422,0.01805
409.40443,0.02238
407.91464,0.01670
406.42485,0.04549
404.93506,0.04731
403.44527,0.04916
401.95548,0.03924
400.46570,0.03531
398.97591,0.02936
397.48612,0.02344
395.99633,0.04508
394.50654,0.03880
393.01675,0.04733
391.52697,0.05588
390.03718,0.06867
388.54739,0.03075
387.05760,0.03083
385.56781,0.03094
384.07802,0.01805
382.58824,0.02223
381.09845,0.03076
379.60866,0.03932
378.11887,0.04899
376.62908,0.02424
375.13929,0.01918
373.64950,0.01414
372.15972,0.03313
370.66993,0.02367
369.18014,0.02318
367.69035,0.02271
366.20056,0.02200
364.71077,0.01805
363.22099,0.03085
361.73120,0.04367
360.24141,0.06302
358.75162,0.05500
357.26183,0.05732
355.77204,0.05966
354.28225,0.06717
352.79247,0.05057
351.30268,0.06302
349.81289,0.07549
348.32310,0.09395
346.83331,0.05819
345.34352,0.04782
343.85374,0.03747
342.36395,0.01805
340.87416,0.02550
339.38437,0.02905
337.89458,0.03261
336.40479,0.03037
334.91501,0.02084
333.42522,0.02014
331.93543,0.01946
330.44564,0.02654
328.95585,0.02225
327.46606,0.02613
325.97627,0.03002
324.48649,0.02038
322.99670,0.04846
321.50691,0.06300
320.01712,0.07756
318.52733,0.09106
317.03754,0.11652
315.54776,0.11624
314.05797,0.11598
312.56818,0.08971
311.07839,0.10252
309.58860,0.09745
308.09881,0.09241
306.60902,0.10800
305.11924,0.08782
303.62945,0.05762
302.13966,0.02745
300.64987,0.01805
299.16008,0.01805
