1778.52000,0.00235
1777.03021,0.00627
1775.54042,0.00243
1774.05063,0.00947
1772.56085,0.01632
1771.07106,0.01440
1769.58127,0.01762
1768.09148,0.01247
1766.60169,0.01983
1765.11190,0.02230
1763.62212,0.02910
1762.13233,0.03878
1760.64254,0.03252
1759.15275,0.03836
1757.66296,0.03359
1756.17317,0.03272
1754.68339,0.04066
1753.19360,0.04065
1751.70381,0.03923
1750.21402,0.03721
1748.72423,0.03379
1747.23444,0.03591
1745.74465,0.03500
1744.25487,0.03369
1742.76508,0.04756
1741.27529,0.04712
1739.78550,0.03688
1738.29571,0.04181
1736.80592,0.04267
1735.31614,0.03373
1733.82635,0.04476
1732.33656,0.02143
1730.84677,0.03342
1729.35698,0.02762
1727.86719,0.03700
1726.37740,0.03391
1724.88762,0.04046
1723.39783,0.03210
1721.90804,0.03052
1720.41825,0.02732
1718.92846,0.02148
1717.43867,0.02498
1715.94889,0.03545
1714.45910,0.02180
1712.96931,0.02303
1711.47952,0.02305
1709.98973,0.03027
1708.49994,0.02461
1707.01016,0.02184
1705.52037,0.01909
1704.03058,0.02599
1702.54079,0.01900
1701.05100,0.02144
1699.56121,0.01920
1698.07142,0.02005
1696.58164,0.01848
1695.09185,0.02061
1693.60206,0.02562
1692.11227,0.02780
1690.62248,0.03144
1689.13269,0.03305
1687.64291,0.02322
1686.15312,0.03736
1684.66333,0.02656
1683.17354,0.03011
1681.68375,0.02897
1680.19396,0.03359
1678.70417,0.02964
1677.21439,0.04331
1675.72460,0.03490
1674.23481,0.03778
1672.74502,0.03494
1671.25523,0.04278
1669.76544,0.05104
1668.27566,0.05381
1666.78587,0.05741
1665.29608,0.05633
1663.80629,0.06470
1662.31650,0.07001
1660.82671,0.08415
1659.33693,0.07334
1657.84714,0.07259
1656.35735,0.06551
1654.86756,0.06624
1653.37777,0.07599
1651.88798,0.06838
1650.39819,0.06835
1648.90841,0.07716
1647.41862,0.07145
1645.92883,0.07324
1644.43904,0.07506
1642.94925,0.07864
1641.45946,0.07466
1639.96968,0.07317
1638.47989,0.08194
1636.99010,0.07947
1635.50031,0.09299
1634.01052,0.07747
1632.52073,0.08470
1631.03094,0.09194
1629.54116,0.07752
1628.05137,0.09218
1626.56158,0.08661
1625.07179,0.08228
1623.58200,0.10234
1622.09221,0.08885
1620.60243,0.09443
1619.11264,0.08119
1617.62285,0.08374
1616.13306,0.07035
1614.64327,0.08093
1613.15348,0.09542
1611.66370,0.10175
1610.17391,0.10012
1608.68412,0.09401
1607.19433,0.08117
1605.70454,0.09272
1604.21475,0.08801
1602.72496,0.08332
1601.23518,0.08307
1599.74539,0.07239
1598.25560,0.08405
1596.76581,0.09779
1595.27602,0.08821
1593.78623,0.07312
1592.29645,0.08406
1590.80666,0.07906
1589.31687,0.07756
1587.82708,0.08283
1586.33729,0.07422
1584.84750,0.07279
1583.35771,0.07200
1581.86793,0.07184
1580.37814,0.07642
1578.88835,0.08246
1577.39856,0.07644
1575.90877,0.05959
1574.41898,0.06304
1572.92920,0.05238
1571.43941,0.05588
1569.94962,0.05755
1568.45983,0.05925
1566.97004,0.03948
1565.48025,0.04348
1563.99047,0.03419
1562.50068,0.04151
1561.01089,0.03514
1559.52110,0.02573
1558.03131,0.03025
1556.54152,0.01986
1555.05173,0.03098
1553.56195,0.02944
1552.07216,0.03140
1550.58237,0.01332
1549.09258,0.01226
1547.60279,0.01000
1546.11300,0.00243
1544.62322,0.01999
1543.13343,0.02038
1541.64364,0.01322
1540.15385,0.01039
1538.66406,0.00757
1537.17427,0.02914
1535.68448,0.01655
1534.19470,0.01442
1532.70491,0.01662
1531.21512,0.02580
1529.72533,0.02927
1528.23554,0.01823
1526.74575,0.02502
1525.25597,0.01608
1523.76618,0.02210
1522.27639,0.02896
1520.78660,0.03626
1519.29681,0.03867
1517.80702,0.02289
1516.31724,0.02534
1514.82745,0.03642
1513.33766,0.04189
1511.84787,0.04739
1510.35808,0.05199
1508.86829,0.04904
1507.37850,0.04509
1505.88872,0.05324
1504.39893,0.05588
1502.90914,0.05917
1501.41935,0.06084
1499.92956,0.05373
1498.43977,0.06160
1496.94999,0.06579
1495.46020,0.06736
1493.97041,0.08409
1492.48062,0.10945
1490.99083,0.10187
1489.50104,0.11212
1488.01125,0.11032
1486.52147,0.10855
1485.03168,0.11703
1483.54189,0.15891
1482.05210,0.17890
1480.56231,0.19012
1479.07252,0.21569
1477.58274,0.22634
1476.09295,0.23128
1474.60316,0.22847
1473.11337,0.24022
1471.62358,0.23581
1470.13379,0.24269
1468.64401,0.25205
1467.15422,0.26778
1465.66443,0.27791
1464.17464,0.28806
1462.68485,0.32617
1461.19506,0.37127
1459.70527,0.39797
1458.21549,0.46481
1456.72570,0.52369
1455.23591,0.54453
1453.74612,0.58074
1452.25633,0.64747
1450.76654,0.66797
1449.27676,0.66249
1447.78697,0.68610
1446.29718,0.69398
1444.80739,0.66974
1443.31760,0.64552
1441.82781,0.59124
1440.33802,0.53309
1438.84824,0.49421
1437.35845,0.45760
1435.86866,0.46810
1434.37887,0.51997
1432.88908,0.52909
1431.39929,0.55829
1429.90951,0.65404
1428.41972,0.70478
1426.92993,0.77621
1425.44014,0.79445
1423.95035,0.81671
1422.46056,0.83899
1420.97078,0.84870
1419.48099,0.89754
1417.99120,0.92818
1416.50141,0.96478
1415.01162,0.92300
1413.52183,0.86958
1412.03204,0.79612
1410.54226,0.73784
1409.05247,0.67405
1407.56268,0.63177
1406.07289,0.57295
1404.58310,0.55283
1403.09331,0.53274
1401.60353,0.47337
1400.11374,0.40563
1398.62395,0.37414
1397.13416,0.32283
1395.64437,0.26294
1394.15458,0.22927
1392.66479,0.18908
1391.17501,0.17859
1389.68522,0.13354
1388.19543,0.10693
1386.70564,0.09068
1385.21585,0.07446
1383.72606,0.05447
1382.23628,0.05743
1380.74649,0.03811
1379.25670,0.03662
1377.76691,0.03412
1376.27712,0.01774
1374.78733,0.00751
1373.29755,0.00243
1371.80776,0.01546
1370.31797,0.01010
1368.82818,0.01038
1367.33839,0.01069
1365.84860,0.01727
1364.35881,0.02960
1362.86903,0.04687
1361.37924,0.05700
1359.88945,0.07637
1358.39966,0.09596
1356.90987,0.13031
1355.42008,0.18557
1353.93030,0.22079
1352.44051,0.25061
1350.95072,0.28046
1349.46093,0.36529
1347.97114,0.42824
1346.48135,0.50657
1344.99156,0.57755
1343.50178,0.62113
1342.01199,0.67456
1340.52220,0.71961
1339.03241,0.80093
1337.54262,0.84378
1336.05283,0.87274
1334.56305,0.90172
1333.07326,0.91865
1331.58347,0.87234
1330.09368,0.86885
1328.60389,0.86845
1327.11410,0.87339
1325.62432,0.84684
1324.13453,0.82297
1322.64474,0.76084
1321.15495,0.72924
1319.66516,0.70278
1318.17537,0.67634
1316.68558,0.63192
1315.19580,0.56868
1313.70601,0.53269
1312.21622,0.51679
1310.72643,0.46857
1309.23664,0.43450
1307.74685,0.39165
1306.25707,0.36581
1304.76728,0.34399
1303.27749,0.32220
1301.78770,0.29029
1300.29791,0.26209
1298.80812,0.21652
1297.31834,0.17404
1295.82855,0.14735
1294.33876,0.11617
1292.84897,0.10161
1291.35918,0.09484
1289.86939,0.09138
1288.37960,0.08793
1286.88982,0.09106
1285.40003,0.08890
1283.91024,0.07304
1282.42045,0.06130
1280.93066,0.06883
1279.44087,0.06164
1277.95109,0.05242
1276.46130,0.04078
1274.97151,0.03520
1273.48172,0.02964
1271.99193,0.03281
1270.50214,0.02576
1269.01235,0.02529
1267.52257,0.02607
1266.03278,0.02175
1264.54299,0.03773
1263.05320,0.04083
1261.56341,0.02820
1260.07362,0.01559
1258.58384,0.01795
1257.09405,0.02462
1255.60426,0.01802
1254.11447,0.01738
1252.62468,0.00243
1251.13489,0.01229
1249.64511,0.01624
1248.15532,0.01939
1246.66553,0.01203
1245.17574,0.00469
1243.68595,0.01590
1242.19616,0.02795
1240.70637,0.01955
1239.21659,0.02121
1237.72680,0.02617
1236.23701,0.03176
1234.74722,0.02285
1233.25743,0.01263
1231.76764,0.00243
1230.27786,0.00717
1228.78807,0.01869
1227.29828,0.02553
1225.80849,0.01724
1224.31870,0.00550
1222.82891,0.00729
1221.33912,0.01893
1219.84934,0.01687
1218.35955,0.01485
1216.86976,0.02205
1215.37997,0.03584
1213.89018,0.06786
1212.40039,0.06081
1210.91061,0.05317
1209.42082,0.05497
1207.93103,0.04881
1206.44124,0.04267
1204.95145,0.06194
1203.46166,0.04316
1201.97188,0.04324
1200.48209,0.05624
1198.99230,0.04469
1197.50251,0.03256
1196.01272,0.02516
1194.52293,0.03109
1193.03314,0.03704
1191.54336,0.04015
1190.05357,0.01605
1188.56378,0.03211
1187.07399,0.01134
1185.58420,0.01720
1184.09441,0.01347
1182.60463,0.01130
1181.11484,0.00915
1179.62505,0.01634
1178.13526,0.02007
1176.64547,0.01564
1175.15568,0.00243
1173.66589,0.01587
1172.17611,0.02175
1170.68632,0.01835
1169.19653,0.01497
1167.70674,0.01069
1166.21695,0.03550
1164.72716,0.02042
1163.23738,0.03546
1161.74759,0.02984
1160.25780,0.03735
1158.76801,0.04120
1157.27822,0.04507
1155.78843,0.05675
1154.29865,0.08011
1152.80886,0.08426
1151.31907,0.08966
1149.82928,0.09754
1148.33949,0.12039
1146.84970,0.13374
1145.35991,0.14712
1143.87013,0.13422
1142.38034,0.14037
1140.89055,0.13059
1139.40076,0.16525
1137.91097,0.16370
1136.42118,0.20188
1134.93140,0.19762
1133.44161,0.19337
1131.95182,0.20604
1130.46203,0.21546
1128.97224,0.21180
1127.48245,0.21063
1125.99266,0.23301
1124.50288,0.23270
1123.01309,0.22811
1121.52330,0.22355
1120.03351,0.21778
1118.54372,0.22453
1117.05393,0.21615
1115.56415,0.21168
1114.07436,0.22136
1112.58457,0.22277
1111.09478,0.22421
1109.60499,0.21595
1108.11520,0.23657
1106.62542,0.21771
1105.13563,0.22385
1103.64584,0.19378
1102.15605,0.18933
1100.66626,0.18069
1099.17647,0.17209
1097.68668,0.18367
1096.19690,0.18668
1094.70711,0.18848
1093.21732,0.17864
1091.72753,0.19031
1090.23774,0.17642
1088.74795,0.16256
1087.25817,0.14974
1085.76838,0.15128
1084.27859,0.16880
1082.78880,0.14623
1081.29901,0.14354
1079.80922,0.15172
1078.31943,0.15655
1076.82965,0.16140
1075.33986,0.17764
1073.85007,0.17384
1072.36028,0.16617
1070.87049,0.17777
1069.38070,0.19103
1067.89092,0.20820
1066.40113,0.22540
1064.91134,0.30322
1063.42155,0.38187
1061.93176,0.44459
1060.44197,0.50037
1058.95219,0.59138
1057.46240,0.63277
1055.97261,0.67419
1054.48282,0.73415
1052.99303,0.81748
1051.50324,0.78825
1050.01345,0.79670
1048.52367,0.80845
1047.03388,0.80692
1045.54409,0.80542
1044.05430,0.76627
1042.56451,0.71466
1041.07472,0.66471
1039.58494,0.62645
1038.09515,0.54544
1036.60536,0.51859
1035.11557,0.49176
1033.62578,0.41348
1032.13599,0.36613
1030.64620,0.34501
1029.15642,0.27846
1027.66663,0.25626
1026.17684,0.23408
1024.68705,0.20671
1023.19726,0.16892
1021.70747,0.15735
1020.21769,0.12985
1018.72790,0.11506
1017.23811,0.10622
1015.74832,0.09742
1014.25853,0.08617
1012.76874,0.06779
1011.27896,0.08628
1009.78917,0.07921
1008.29938,0.06540
1006.80959,0.05981
1005.31980,0.05424
1003.83001,0.03784
1002.34022,0.00243
1000.85044,0.01898
999.36065,0.04250
997.87086,0.04661
996.38107,0.05074
994.89128,0.04343
993.40149,0.04658
991.91171,0.07596
990.42192,0.08592
988.93213,0.09221
987.44234,0.09505
985.95255,0.09792
984.46276,0.10592
982.97297,0.08120
981.48319,0.07226
979.99340,0.06027
978.50361,0.04770
977.01382,0.03515
975.52403,0.03388
974.03424,0.02772
972.54446,0.02834
971.05467,0.00606
969.56488,0.00243
968.07509,0.00626
966.58530,0.01011
965.09551,0.01112
963.60573,0.01767
962.11594,0.00993
960.62615,0.00118
959.13636,0.00904
957.64657,0.01692
956.15678,0.02094
954.66699,0.03460
953.17721,0.04092
951.68742,0.05545
950.19763,0.05721
948.70784,0.05899
947.21805,0.06192
945.72826,0.04625
944.23848,0.06744
942.74869,0.09337
941.25890,0.12486
939.76911,0.13251
938.27932,0.14019
936.78953,0.14554
935.29974,0.18469
933.80996,0.18477
932.32017,0.23297
930.83038,0.23033
929.34059,0.22772
927.85080,0.23956
926.36101,0.24773
924.87123,0.27272
923.38144,0.32005
921.89165,0.35470
920.40186,0.38938
918.91207,0.46830
917.42228,0.58675
915.93250,0.71894
914.44271,0.92014
912.95292,1.02505
911.46313,1.12999
909.97334,1.36831
908.48355,1.61894
906.99376,1.76417
905.50398,1.81157
904.01419,1.84785
902.52440,1.88414
901.03461,1.97522
899.54482,2.00000
898.05503,1.85408
896.56525,1.65680
895.07546,1.51840
893.58567,1.38003
892.09588,1.12468
890.60609,0.89188
889.11630,0.68695
887.62651,0.50803
886.13673,0.44766
884.64694,0.38732
883.15715,0.27132
881.66736,0.16640
880.17757,0.13274
878.68778,0.12244
877.19800,0.11216
875.70821,0.06199
874.21842,0.04521
872.72863,0.03193
871.23884,0.01765
869.74905,0.01271
868.25927,0.00780
866.76948,0.01611
865.27969,0.01237
863.78990,0.04550
862.30011,0.03137
860.81032,0.03189
859.32053,0.03244
857.83075,0.05768
856.34096,0.07456
854.85117,0.09288
853.36138,0.10100
851.87159,0.10229
850.38180,0.10359
848.89202,0.12775
847.40223,0.15418
845.91244,0.16590
844.42265,0.16587
842.93286,0.16586
841.44307,0.17519
839.95329,0.19826
838.46350,0.21194
836.97371,0.21500
835.48392,0.21972
833.99413,0.22446
832.50434,0.22083
831.01455,0.21641
829.52477,0.20260
828.03498,0.16526
826.54519,0.15713
825.05540,0.14901
823.56561,0.11994
822.07582,0.11484
820.58604,0.10875
819.09625,0.10626
817.60646,0.10379
816.11667,0.10022
814.62688,0.09442
813.13709,0.09602
811.64730,0.08618
810.15752,0.09038
808.66773,0.09460
807.17794,0.10346
805.68815,0.11152
804.19836,0.11265
802.70857,0.11994
801.21879,0.12725
799.72900,0.11944
798.23921,0.10265
796.74942,0.10430
795.25963,0.10198
793.76984,0.09969
792.28006,0.12353
790.79027,0.13592
789.30048,0.13380
787.81069,0.13171
786.32090,0.14704
784.83111,0.16239
783.34132,0.20520
781.85154,0.24456
780.36175,0.29601
778.87196,0.31289
777.38217,0.32980
775.89238,0.34366
774.40259,0.36389
772.91281,0.36776
771.42302,0.33656
769.93323,0.30538
768.44344,0.25856
766.95365,0.20050
765.46386,0.18567
763.97407,0.16615
762.48429,0.14501
760.99450,0.12390
759.50471,0.09913
758.01492,0.09035
756.52513,0.07934
755.03534,0.06835
753.54556,0.05739
752.05577,0.05792
750.56598,0.05826
749.07619,0.03325
747.58640,0.03292
746.09661,0.03262
744.60683,0.02570
743.11704,0.02391
741.62725,0.00986
740.13746,0.01232
738.64767,0.01480
737.15788,0.00717
735.66809,0.00243
734.17831,0.01066
732.68852,0.01196
731.19873,0.01328
729.70894,0.00787
728.21915,0.02071
726.72936,0.01145
725.23958,0.00243
723.74979,0.00486
722.26000,0.00731
720.77021,0.00201
719.28042,0.00144
717.79063,0.00724
716.30084,0.00386
714.81106,0.00049
713.32127,0.01414
711.83148,0.02311
710.34169,0.02125
708.85190,0.02238
707.36211,0.02354
705.87233,0.02933
704.38254,0.02920
702.89275,0.04158
701.40296,0.03997
699.91317,0.03838
698.42338,0.05390
696.93360,0.08092
695.44381,0.08155
693.95402,0.09295
692.46423,0.10438
690.97444,0.12289
689.48465,0.13303
687.99486,0.16428
686.50508,0.16833
685.01529,0.17240
683.52550,0.20495
682.03571,0.22872
680.54592,0.25620
679.05613,0.24748
677.56635,0.23877
676.07656,0.24442
674.58677,0.21447
673.09698,0.20953
671.60719,0.19764
670.11740,0.18578
668.62761,0.16043
667.13783,0.15681
665.64804,0.14195
664.15825,0.12711
662.66846,0.09818
661.17867,0.08462
659.68888,0.06003
658.19910,0.05163
656.70931,0.04326
655.21952,0.04699
653.72973,0.03396
652.23994,0.04511
650.75015,0.03223
649.26037,0.01937
647.77058,0.02690
646.28079,0.02893
644.79100,0.04634
643.30121,0.04719
641.81142,0.04807
640.32163,0.04139
638.83185,0.02798
637.34206,0.01972
635.85227,0.01823
634.36248,0.01677
632.87269,0.00243
631.38290,0.01271
629.89312,0.01666
628.40333,0.00641
626.91354,0.01735
625.42375,0.02831
623.93396,0.03930
622.44417,0.05031
620.95438,0.06134
619.46460,0.07239
617.97481,0.08347
616.48502,0.09458
614.99523,0.10571
613.50544,0.11686
612.01565,0.12803
610.52587,0.13923
609.03608,0.15273
607.54629,0.17301
606.05650,0.19331
604.56671,0.25192
603.07692,0.31362
601.58714,0.32949
600.09735,0.34539
598.60756,0.36560
597.11777,0.38667
595.62798,0.37663
594.13819,0.36264
592.64840,0.34866
591.15862,0.35016
589.66883,0.29130
588.17904,0.22510
586.68925,0.20201
585.19946,0.17894
583.70967,0.13451
582.21989,0.10893
580.73010,0.09780
579.24031,0.08670
577.75052,0.04748
576.26073,0.05352
574.77094,0.03707
573.28115,0.03282
571.79137,0.02860
570.30158,0.02102
568.81179,0.04908
567.32200,0.06110
565.83221,0.07314
564.34242,0.07835
562.85264,0.08256
561.36285,0.09702
559.87306,0.09801
558.38327,0.09901
556.89348,0.13156
555.40369,0.11235
553.91391,0.12642
552.42412,0.14052
550.93433,0.13182
549.44454,0.14259
547.95475,0.15113
546.46496,0.16256
544.97517,0.17401
543.48539,0.19532
541.99560,0.19208
540.50581,0.21343
539.01602,0.23481
537.52623,0.29264
536.03644,0.32717
534.54666,0.34513
533.05687,0.37295
531.56708,0.40079
530.07729,0.41044
528.58750,0.44692
527.09771,0.48978
525.60792,0.53266
524.11814,0.63349
522.62835,0.68030
521.13856,0.72694
519.64877,0.73644
518.15898,0.74597
516.66919,0.78531
515.17941,0.80338
513.68962,0.79671
512.19983,0.79006
510.71004,0.71302
509.22025,0.69311
507.73046,0.61754
506.24068,0.58438
504.75089,0.55124
503.26110,0.44176
501.77131,0.35913
500.28152,0.31276
498.79173,0.26640
497.30194,0.21127
495.81216,0.17500
494.32237,0.15564
492.83258,0.13630
491.34279,0.09907
489.85300,0.07763
488.36321,0.07238
486.87343,0.06911
485.38364,0.06586
483.89385,0.06457
482.40406,0.08153
480.91427,0.08244
479.42448,0.08338
477.93469,0.09754
476.44491,0.13261
474.95512,0.14907
473.46533,0.16556
471.97554,0.15771
470.48575,0.17507
468.99596,0.17832
467.50618,0.15877
466.01639,0.13925
464.52660,0.10306
463.03681,0.08512
461.54702,0.06905
460.05723,0.05300
458.56745,0.04557
457.07766,0.02486
455.58787,0.02116
454.09808,0.01748
452.60829,0.01343
451.11850,0.00243
449.62871,0.01349
448.13893,0.02457
446.64914,0.01326
445.15935,0.02715
443.66956,0.01323
442.17977,0.01509
440.68998,0.01697
439.20020,0.01704
437.71041,0.03801
436.22062,0.03536
434.73083,0.03274
433.24104,0.04130
431.75125,0.03043
430.26146,0.03698
428.77168,0.04356
427.28189,0.02090
425.79210,0.04697
424.30231,0.04011
422.81252,0.03328
421.32273,0.02626
419.83295,0.02930
418.34316,0.02683
416.85337,0.02439
415.36358,0.02300
413.87379,0.01549
412.38400,0.01619
410.89422,0.01691
409.40443,0.01336
407.91464,0.02806
406.42485,0.04032
404.93506,0.02896
403.44527,0.01762
401.95548,0.02770
400.46570,0.01508
398.97591,0.01733
397.48612,0.01960
395.99633,0.01278
394.50654,0.03076
393.01675,0.02849
391.52697,0.02625
390.03718,0.03796
388.54739,0.01898
387.05760,0.01333
385.56781,0.00770
384.07802,0.01037
382.58824,0.02554
381.09845,0.02263
379.60866,0.01973
378.11887,0.00243
376.62908,0.01074
375.13929,0.00536
373.64950,0.00000
372.15972,0.01003
370.66993,0.01599
369.18014,0.01563
367.69035,0.01529
366.20056,0.01744
364.71077,0.00794
363.22099,0.00962
361.73120,0.01132
360.24141,0.01438
358.75162,0.01807
357.26183,0.01555
355.77204,0.01305
354.28225,0.00515
352.79247,0.02183
351.30268,0.03046
349.81289,0.03911
348.32310,0.05689
346.83331,0.03908
345.34352,0.02548
343.85374,0.01192
342.36395,0.03593
340.87416,0.03336
339.38437,0.03921
337.89458,0.04508
336.40479,0.03604
334.91501,0.02251
333.42522,0.02077
331.93543,0.01906
330.44564,0.04204
328.95585,0.01285
327.46606,0.01070
325.97627,0.00857
324.48649,0.00243
322.99670,0.05178
321.50691,0.07536
320.01712,0.09896
318.52733,0.09475
317.03754,0.07827
315.54776,0.06633
314.05797,0.05441
312.56818,0.04333
311.07839,0.03166
309.58860,0.03271
308.09881,0.03378
306.60902,0.07868
305.11924,0.04643
303.62945,0.03069
302.13966,0.01497
300.64987,0.00265
299.16008,0.00243
