1778.52000,0.01408
1777.03021,0.01335
1775.54042,0.02210
1774.05063,0.01307
1772.56085,0.01631
1771.07106,0.01318
1769.58127,0.01813
1768.09148,0.01699
1766.60169,0.00754
1765.11190,0.02174
1763.62212,0.02652
1762.13233,0.02604
1760.64254,0.02697
1759.15275,0.02821
1757.66296,0.01974
1756.17317,0.01352
1754.68339,0.01761
1753.19360,0.02479
1751.70381,0.02504
1750.21402,0.02643
1748.72423,0.00754
1747.23444,0.01692
1745.74465,0.01242
1744.25487,0.01296
1742.76508,0.02158
1741.27529,0.01994
1739.78550,0.02610
1738.29571,0.02813
1736.80592,0.01655
1735.31614,0.02057
1733.82635,0.01905
1732.33656,0.00950
1730.84677,0.00970
1729.35698,0.00742
1727.86719,0.01268
1726.37740,0.00934
1724.88762,0.02104
1723.39783,0.01442
1721.90804,0.00754
1720.41825,0.01560
1718.92846,0.01174
1717.43867,0.01457
1715.94889,0.01742
1714.45910,0.01530
1712.96931,0.01320
1711.47952,0.00806
1709.98973,0.02770
1708.49994,0.01789
1707.01016,0.01784
1705.52037,0.01781
1704.03058,0.01697
1702.54079,0.00754
1701.05100,0.01615
1699.56121,0.02090
1698.07142,0.02929
1696.58164,0.03520
1695.09185,0.03640
1693.60206,0.03430
1692.11227,0.02860
1690.62248,0.03433
1689.13269,0.04398
1687.64291,0.04837
1686.15312,0.05473
1684.66333,0.04750
1683.17354,0.04723
1681.68375,0.05423
1680.19396,0.05096
1678.70417,0.05383
1677.21439,0.05728
1675.72460,0.06159
1674.23481,0.06954
1672.74502,0.06668
1671.25523,0.07273
1669.76544,0.08521
1668.27566,0.08825
1666.78587,0.07881
1665.29608,0.08803
1663.80629,0.09504
1662.31650,0.10931
1660.82671,0.10442
1659.33693,0.12652
1657.84714,0.10861
1656.35735,0.10768
1654.86756,0.10929
1653.37777,0.09729
1651.88798,0.10339
1650.39819,0.08950
1648.90841,0.09649
1647.41862,0.06985
1645.92883,0.08815
1644.43904,0.10647
1642.94925,0.08714
1641.45946,0.09259
1639.96968,0.08415
1638.47989,0.08492
1636.99010,0.09099
1635.50031,0.09458
1634.01052,0.10488
1632.52073,0.08684
1631.03094,0.09774
1629.54116,0.09671
1628.05137,0.10682
1626.56158,0.11279
1625.07179,0.11017
1623.58200,0.11924
1622.09221,0.11055
1620.60243,0.10911
1619.11264,0.10520
1617.62285,0.09102
1616.13306,0.10745
1614.64327,0.08749
1613.15348,0.09368
1611.66370,0.10658
1610.17391,0.10948
1608.68412,0.11297
1607.19433,0.11315
1605.70454,0.10418
1604.21475,0.10023
1602.72496,0.09632
1601.23518,0.10883
1599.74539,0.10690
1598.25560,0.09778
1596.76581,0.09674
1595.27602,0.10407
1593.78623,0.09863
1592.29645,0.09989
1590.80666,0.07894
1589.31687,0.09304
1587.82708,0.09271
1586.33729,0.09740
1584.84750,0.09267
1583.35771,0.10604
1581.86793,0.09163
1580.37814,0.08836
1578.88835,0.08262
1577.39856,0.07245
1575.90877,0.08511
1574.41898,0.07249
1572.92920,0.06212
1571.43941,0.05511
1569.94962,0.05675
1568.45983,0.05841
1566.97004,0.05398
1565.48025,0.04457
1563.99047,0.03935
1562.50068,0.03277
1561.01089,0.04067
1559.52110,0.03998
1558.03131,0.04571
1556.54152,0.02811
1555.05173,0.03527
1553.56195,0.02022
1552.07216,0.03690
1550.58237,0.02801
1549.09258,0.01693
1547.60279,0.00754
1546.11300,0.01243
1544.62322,0.00873
1543.13343,0.01445
1541.64364,0.01408
1540.15385,0.01498
1538.66406,0.01591
1537.17427,0.01200
1535.68448,0.01965
1534.19470,0.01898
1532.70491,0.01639
1531.21512,0.01632
1529.72533,0.03519
1528.23554,0.01322
1526.74575,0.01573
1525.25597,0.01577
1523.76618,0.04614
1522.27639,0.04094
1520.78660,0.05190
1519.29681,0.03758
1517.80702,0.03802
1516.31724,0.02708
1514.82745,0.03147
1513.33766,0.03713
1511.84787,0.04281
1510.35808,0.05505
1508.86829,0.04953
1507.37850,0.04680
1505.88872,0.04439
1504.39893,0.05534
1502.90914,0.07021
1501.41935,0.07871
1499.92956,0.08306
1498.43977,0.08132
1496.94999,0.09880
1495.46020,0.09850
1493.97041,0.10073
1492.48062,0.10743
1490.99083,0.14697
1489.50104,0.14316
1488.01125,0.14632
1486.52147,0.14951
1485.03168,0.17358
1483.54189,0.21518
1482.05210,0.21289
1480.56231,0.24203
1479.07252,0.27204
1477.58274,0.28066
1476.09295,0.31516
1474.60316,0.32828
1473.11337,0.32363
1471.62358,0.32763
1470.13379,0.33693
1468.64401,0.35015
1467.15422,0.35227
1465.66443,0.38014
1464.17464,0.40803
1462.68485,0.44304
1461.19506,0.48752
1459.70527,0.52230
1458.21549,0.57267
1456.72570,0.64531
1455.23591,0.74384
1453.74612,0.75842
1452.25633,0.83447
1450.76654,0.84855
1449.27676,0.84596
1447.78697,0.84313
1446.29718,0.80918
1444.80739,0.78624
1443.31760,0.76332
1441.82781,0.70637
1440.33802,0.65611
1438.84824,0.58420
1437.35845,0.57097
1435.86866,0.56027
1434.37887,0.57907
1432.88908,0.60874
1431.39929,0.64677
1429.90951,0.73960
1428.41972,0.82050
1426.92993,0.89781
1425.44014,0.93595
1423.95035,0.95812
1422.46056,0.98031
1420.97078,1.00351
1419.48099,1.03701
1417.99120,1.04997
1416.50141,1.01958
1415.01162,0.99533
1413.52183,0.94691
1412.03204,0.85876
1410.54226,0.79538
1409.05247,0.71312
1407.56268,0.66981
1406.07289,0.59428
1404.58310,0.57312
1403.09331,0.55199
1401.60353,0.48403
1400.11374,0.43751
1398.62395,0.37656
1397.13416,0.33648
1395.64437,0.30115
1394.15458,0.25251
1392.66479,0.18609
1391.17501,0.18726
1389.68522,0.15649
1388.19543,0.11906
1386.70564,0.10279
1385.21585,0.08655
1383.72606,0.05921
1382.23628,0.03940
1380.74649,0.01878
1379.25670,0.04323
1377.76691,0.03768
1376.27712,0.02714
1374.78733,0.01469
1373.29755,0.00754
1371.80776,0.01651
1370.31797,0.02049
1368.82818,0.02437
1367.33839,0.02826
1365.84860,0.01759
1364.35881,0.03307
1362.86903,0.04358
1361.37924,0.06051
1359.88945,0.08079
1358.39966,0.11251
1356.90987,0.14146
1355.42008,0.19658
1353.93030,0.26006
1352.44051,0.29201
1350.95072,0.32399
1349.46093,0.41368
1347.97114,0.51869
1346.48135,0.58035
1344.99156,0.62786
1343.50178,0.71431
1342.01199,0.74964
1340.52220,0.80028
1339.03241,0.84955
1337.54262,0.91942
1336.05283,0.95485
1334.56305,0.99029
1333.07326,0.97350
1331.58347,0.97396
1330.09368,0.94442
1328.60389,0.94855
1327.11410,0.94770
1325.62432,0.92769
1324.13453,0.90270
1322.64474,0.84993
1321.15495,0.83222
1319.66516,0.78938
1318.17537,0.74655
1316.68558,0.66553
1315.19580,0.62122
1313.70601,0.59057
1312.21622,0.56356
1310.72643,0.53824
1309.23664,0.49403
1307.74685,0.45681
1306.25707,0.42989
1304.76728,0.41649
1303.27749,0.40311
1301.78770,0.36960
1300.29791,0.31971
1298.80812,0.25316
1297.31834,0.23279
1295.82855,0.18770
1294.33876,0.15848
1292.84897,0.14264
1291.35918,0.11264
1289.86939,0.10727
1288.37960,0.10192
1286.88982,0.09813
1285.40003,0.09492
1283.91024,0.09257
1282.42045,0.06411
1280.93066,0.08238
1279.44087,0.08567
1277.95109,0.06479
1276.46130,0.05950
1274.97151,0.06147
1273.48172,0.06347
1271.99193,0.05214
1270.50214,0.04696
1269.01235,0.03262
1267.52257,0.05446
1266.03278,0.03878
1264.54299,0.03453
1263.05320,0.03782
1261.56341,0.03542
1260.07362,0.03305
1258.58384,0.03724
1257.09405,0.00754
1255.60426,0.01236
1254.11447,0.03973
1252.62468,0.02959
1251.13489,0.01391
1249.64511,0.01995
1248.15532,0.01822
1246.66553,0.01527
1245.17574,0.01234
1243.68595,0.03238
1242.19616,0.02992
1240.70637,0.03277
1239.21659,0.02368
1237.72680,0.02158
1236.23701,0.00754
1234.74722,0.01818
1233.25743,0.02412
1231.76764,0.03009
1230.27786,0.02440
1228.78807,0.01374
1227.29828,0.01338
1225.80849,0.01667
1224.31870,0.01136
1222.82891,0.00997
1221.33912,0.02612
1219.84934,0.03645
1218.35955,0.04681
1216.86976,0.03218
1215.37997,0.03675
1213.89018,0.07582
1212.40039,0.06182
1210.91061,0.08398
1209.42082,0.08587
1207.93103,0.08264
1206.44124,0.07944
1204.95145,0.09336
1203.46166,0.06783
1201.97188,0.07902
1200.48209,0.08245
1198.99230,0.06700
1197.50251,0.04213
1196.01272,0.02561
1194.52293,0.03081
1193.03314,0.03604
1191.54336,0.02655
1190.05357,0.02154
1188.56378,0.03629
1187.07399,0.01381
1185.58420,0.01638
1184.09441,0.01286
1182.60463,0.01409
1181.11484,0.01534
1179.62505,0.02941
1178.13526,0.02599
1176.64547,0.03705
1175.15568,0.01783
1173.66589,0.01448
1172.17611,0.00754
1170.68632,0.01197
1169.19653,0.01643
1167.70674,0.02508
1166.21695,0.01569
1164.72716,0.03134
1163.23738,0.03562
1161.74759,0.03881
1160.25780,0.05148
1158.76801,0.05431
1157.27822,0.05716
1155.78843,0.07435
1154.29865,0.10825
1152.80886,0.11354
1151.31907,0.11885
1149.82928,0.11891
1148.33949,0.11899
1146.84970,0.13285
1145.35991,0.14675
1143.87013,0.14384
1142.38034,0.15209
1140.89055,0.16258
1139.40076,0.18060
1137.91097,0.21311
1136.42118,0.23118
1134.93140,0.24053
1133.44161,0.24989
1131.95182,0.25330
1130.46203,0.27676
1128.97224,0.28968
1127.48245,0.30985
1125.99266,0.28111
1124.50288,0.27881
1123.01309,0.27014
1121.52330,0.26149
1120.03351,0.26427
1118.54372,0.26012
1117.05393,0.27936
1115.56415,0.27609
1114.07436,0.28703
1112.58457,0.28730
1111.09478,0.28758
1109.60499,0.27524
1108.11520,0.26377
1106.62542,0.25843
1105.13563,0.24867
1103.64584,0.24338
1102.15605,0.26286
1100.66626,0.25776
1099.17647,0.25269
1097.68668,0.24166
1096.19690,0.25568
1094.70711,0.25110
1093.21732,0.25322
1091.72753,0.23200
1090.23774,0.23890
1088.74795,0.24581
1087.25817,0.23023
1085.76838,0.22775
1084.27859,0.21778
1082.78880,0.24593
1081.29901,0.20793
1079.80922,0.23641
1078.31943,0.24100
1076.82965,0.24561
1075.33986,0.27082
1073.85007,0.25936
1072.36028,0.27712
1070.87049,0.27933
1069.38070,0.31994
1067.89092,0.31928
1066.40113,0.31865
1064.91134,0.42689
1063.42155,0.54906
1061.93176,0.67070
1060.44197,0.77290
1058.95219,0.88987
1057.46240,0.94263
1055.97261,0.99541
1054.48282,1.07464
1052.99303,1.14360
1051.50324,1.14614
1050.01345,1.13285
1048.52367,1.15017
1047.03388,1.14862
1045.54409,1.14708
1044.05430,1.04354
1042.56451,0.92472
1041.07472,0.85459
1039.58494,0.77224
1038.09515,0.71050
1036.60536,0.67075
1035.11557,0.63102
1033.62578,0.53710
1032.13599,0.45099
1030.64620,0.42135
1029.15642,0.35531
1027.66663,0.32891
1026.17684,0.30254
1024.68705,0.23852
1023.19726,0.20705
1021.70747,0.19452
1020.21769,0.15921
1018.72790,0.16675
1017.23811,0.16513
1015.74832,0.16354
1014.25853,0.14223
1012.76874,0.14570
1011.27896,0.14585
1009.78917,0.16104
1008.29938,0.12844
1006.80959,0.10600
1005.31980,0.08360
1003.83001,0.03772
1002.34022,0.02023
1000.85044,0.05309
999.36065,0.06650
997.87086,0.07439
996.38107,0.08230
994.89128,0.10330
993.40149,0.10737
991.91171,0.14510
990.42192,0.15311
988.93213,0.17421
987.44234,0.16823
985.95255,0.16227
984.46276,0.18095
982.97297,0.16294
981.48319,0.15526
979.99340,0.12924
978.50361,0.10617
977.01382,0.08312
975.52403,0.07998
974.03424,0.05212
972.54446,0.03374
971.05467,0.02317
969.56488,0.01429
968.07509,0.01920
966.58530,0.02413
965.09551,0.02978
963.60573,0.02350
962.11594,0.03616
960.62615,0.01686
959.13636,0.01219
957.64657,0.00754
956.15678,0.04729
954.66699,0.04119
953.17721,0.04374
951.68742,0.06577
950.19763,0.07323
948.70784,0.08072
947.21805,0.10172
945.72826,0.10995
944.23848,0.08734
942.74869,0.09284
941.25890,0.12840
939.76911,0.13700
938.27932,0.14564
936.78953,0.17126
935.29974,0.21025
933.80996,0.23425
932.32017,0.25911
930.83038,0.25258
929.34059,0.24607
927.85080,0.28129
926.36101,0.30764
924.87123,0.32428
923.38144,0.37181
921.89165,0.40727
920.40186,0.44276
918.91207,0.55904
917.42228,0.69536
915.93250,0.87119
914.44271,1.02342
912.95292,1.13549
911.46313,1.24758
909.97334,1.52750
908.48355,1.74043
906.99376,1.92336
905.50398,1.98648
904.01419,1.97317
902.52440,1.95988
901.03461,2.00000
899.54482,1.94283
898.05503,1.82647
896.56525,1.65563
895.07546,1.50957
893.58567,1.36353
892.09588,1.08462
890.60609,0.89109
889.11630,0.67144
887.62651,0.53190
886.13673,0.46217
884.64694,0.39246
883.15715,0.29052
881.66736,0.22559
880.17757,0.17153
878.68778,0.14224
877.19800,0.11297
875.70821,0.08234
874.21842,0.05062
872.72863,0.04450
871.23884,0.02701
869.74905,0.02123
868.25927,0.01546
866.76948,0.02557
865.27969,0.06407
863.78990,0.07089
862.30011,0.06551
860.81032,0.08169
859.32053,0.09791
857.83075,0.08370
856.34096,0.11345
854.85117,0.11514
853.36138,0.14160
851.87159,0.13917
850.38180,0.13677
848.89202,0.15357
847.40223,0.23018
845.91244,0.21673
844.42265,0.22304
842.93286,0.22938
841.44307,0.26410
839.95329,0.28717
838.46350,0.30110
836.97371,0.31059
835.48392,0.31636
833.99413,0.32216
832.50434,0.30087
831.01455,0.29045
829.52477,0.26364
828.03498,0.23937
826.54519,0.21693
825.05540,0.19452
823.56561,0.21008
822.07582,0.15838
820.58604,0.15592
819.09625,0.15473
817.60646,0.15357
816.11667,0.15480
814.62688,0.16384
813.13709,0.13425
811.64730,0.14417
810.15752,0.14592
808.66773,0.14769
807.17794,0.15629
805.68815,0.16465
804.19836,0.16024
802.70857,0.17003
801.21879,0.17985
799.72900,0.16383
798.23921,0.13228
796.74942,0.13716
795.25963,0.14375
793.76984,0.15035
792.28006,0.18312
790.79027,0.19728
789.30048,0.21481
787.81069,0.22930
786.32090,0.24229
784.83111,0.25530
783.34132,0.28043
781.85154,0.32422
780.36175,0.39305
778.87196,0.41478
777.38217,0.43654
775.89238,0.45790
774.40259,0.47874
772.91281,0.48125
771.42302,0.46418
769.93323,0.44713
768.44344,0.38660
766.95365,0.33638
765.46386,0.29203
763.97407,0.24464
762.48429,0.22258
760.99450,0.20054
759.50471,0.16657
758.01492,0.13708
756.52513,0.09927
755.03534,0.10583
753.54556,0.11241
752.05577,0.09609
750.56598,0.09841
749.07619,0.06879
747.58640,0.06282
746.09661,0.05688
744.60683,0.04902
743.11704,0.05064
741.62725,0.02948
740.13746,0.01850
738.64767,0.00754
737.15788,0.02017
735.66809,0.02838
734.17831,0.01104
732.68852,0.00832
731.19873,0.00562
729.70894,0.01560
728.21915,0.01698
726.72936,0.01255
725.23958,0.01788
723.74979,0.01947
722.26000,0.02110
720.77021,0.01677
719.28042,0.00773
717.79063,0.00733
716.30084,0.01693
714.81106,0.02656
713.32127,0.03330
711.83148,0.05813
710.34169,0.04017
708.85190,0.04281
707.36211,0.04547
705.87233,0.05150
704.38254,0.04587
702.89275,0.06418
701.40296,0.07181
699.91317,0.07947
698.42338,0.08284
696.93360,0.08151
695.44381,0.10856
693.95402,0.11909
692.46423,0.12965
690.97444,0.13815
689.48465,0.16336
687.99486,0.18275
686.50508,0.19550
685.01529,0.20827
683.52550,0.24664
682.03571,0.29227
680.54592,0.31262
679.05613,0.29741
677.56635,0.28223
676.07656,0.28847
674.58677,0.24748
673.09698,0.23014
671.60719,0.21812
670.11740,0.20611
668.62761,0.19302
667.13783,0.20164
665.64804,0.17484
664.15825,0.14806
662.66846,0.12784
661.17867,0.09903
659.68888,0.08915
658.19910,0.08151
656.70931,0.07390
655.21952,0.06243
653.72973,0.06571
652.23994,0.04706
650.75015,0.03983
649.26037,0.03262
647.77058,0.05352
646.28079,0.02663
644.79100,0.04730
643.30121,0.05021
641.81142,0.05313
640.32163,0.07750
638.83185,0.06435
637.34206,0.03510
635.85227,0.02465
634.36248,0.01421
632.87269,0.01034
631.38290,0.01445
629.89312,0.03137
628.40333,0.02190
626.91354,0.01245
625.42375,0.02833
623.93396,0.00754
622.44417,0.01315
620.95438,0.01878
619.46460,0.02958
617.97481,0.05014
616.48502,0.09686
614.99523,0.09995
613.50544,0.10307
612.01565,0.14346
610.52587,0.17360
609.03608,0.21627
607.54629,0.23520
606.05650,0.25415
604.56671,0.32748
603.07692,0.37247
601.58714,0.39331
600.09735,0.41416
598.60756,0.46507
597.11777,0.48487
595.62798,0.47939
594.13819,0.47518
592.64840,0.47100
591.15862,0.42945
589.66883,0.35651
588.17904,0.28831
586.68925,0.24239
585.19946,0.19649
583.70967,0.17508
582.21989,0.14675
580.73010,0.13359
579.24031,0.12046
577.75052,0.09304
576.26073,0.09205
574.77094,0.07218
573.28115,0.07903
571.79137,0.08590
570.30158,0.08557
568.81179,0.09639
567.32200,0.11905
565.83221,0.14173
564.34242,0.13594
562.85264,0.15575
561.36285,0.17031
559.87306,0.18086
558.38327,0.19143
556.89348,0.20634
555.40369,0.22989
553.91391,0.23220
552.42412,0.23453
550.93433,0.24259
549.44454,0.23482
547.95475,0.26684
546.46496,0.27803
544.97517,0.28925
543.48539,0.29381
541.99560,0.30730
540.50581,0.33180
539.01602,0.35632
537.52623,0.40548
536.03644,0.42657
534.54666,0.46326
533.05687,0.49206
531.56708,0.52087
530.07729,0.55458
528.58750,0.60416
527.09771,0.62861
525.60792,0.65307
524.11814,0.72942
522.62835,0.72989
521.13856,0.79461
519.64877,0.81848
518.15898,0.84238
516.66919,0.91774
515.17941,0.90193
513.68962,0.88170
512.19983,0.86149
510.71004,0.83435
509.22025,0.78639
507.73046,0.72427
506.24068,0.69082
504.75089,0.65738
503.26110,0.52333
501.77131,0.41933
500.28152,0.37068
498.79173,0.32206
497.30194,0.22731
495.81216,0.19625
494.32237,0.17662
492.83258,0.15701
491.34279,0.15022
489.85300,0.10675
488.36321,0.08750
486.87343,0.08662
485.38364,0.08577
483.89385,0.07799
482.40406,0.08914
480.91427,0.10574
479.42448,0.12236
477.93469,0.15528
476.44491,0.18933
474.95512,0.19031
473.46533,0.19133
471.97554,0.24186
470.48575,0.24654
468.99596,0.23484
467.50618,0.22316
466.01639,0.21151
464.52660,0.15901
463.03681,0.10988
461.54702,0.08941
460.05723,0.06896
458.56745,0.03046
457.07766,0.04871
455.58787,0.04002
454.09808,0.03135
452.60829,0.04411
451.11850,0.02659
449.62871,0.03009
448.13893,0.03361
446.64914,0.04259
445.15935,0.02433
443.66956,0.01139
442.17977,0.00945
440.68998,0.00754
439.20020,0.02881
437.71041,0.06261
436.22062,0.06238
434.73083,0.06218
433.24104,0.05658
431.75125,0.05017
430.26146,0.04837
428.77168,0.04660
427.28189,0.03664
425.79210,0.06203
424.30231,0.07020
422.81252,0.07840
421.32273,0.04603
419.83295,0.05261
418.34316,0.05490
416.85337,0.05722
415.36358,0.00993
413.87379,0.03802
412.38400,0.03110
410.89422,0.02421
409.40443,0.03096
407.91464,0.03496
406.42485,0.02786
404.93506,0.03010
403.44527,0.03237
401.95548,0.03674
400.46570,0.04170
398.97591,0.03264
397.48612,0.02361
395.99633,0.00000
394.50654,0.03641
393.01675,0.03781
391.52697,0.03924
390.03718,0.06377
388.54739,0.02410
387.05760,0.02045
385.56781,0.01684
384.07802,0.02524
382.58824,0.00754
381.09845,0.01699
379.60866,0.02646
378.11887,0.00969
376.62908,0.03854
375.13929,0.02056
373.64950,0.00261
372.15972,0.02876
370.66993,0.05020
369.18014,0.04024
367.69035,0.03032
366.20056,0.01680
364.71077,0.02595
363.22099,0.03123
361.73120,0.03654
360.24141,0.03965
358.75162,0.05891
357.26183,0.05387
355.77204,0.04885
354.28225,0.04343
352.79247,0.03721
351.30268,0.06452
349.81289,0.09186
348.32310,0.07431
346.83331,0.07903
345.34352,0.07572
343.85374,0.07243
342.36395,0.03219
340.87416,0.06731
339.38437,0.04839
337.89458,0.02949
336.40479,0.03216
334.91501,0.02597
333.42522,0.02674
331.93543,0.02754
330.44564,0.01753
328.95585,0.03367
327.46606,0.03413
325.97627,0.03462
324.48649,0.02415
322.99670,0.05259
321.50691,0.06730
320.01712,0.08203
318.52733,0.10694
317.03754,0.09767
315.54776,0.09775
314.05797,0.09784
312.56818,0.08393
311.07839,0.05891
309.58860,0.05978
308.09881,0.06067
306.60902,0.06159
305.11924,0.04641
303.62945,0.03403
302.13966,0.01172
300.64987,0.00754
299.16008,0.00754
