1778.52000,0.00475
1777.03021,0.11302
1775.54042,0.16491
1774.05063,0.08338
1772.56085,0.13358
1771.07106,0.05931
1769.58127,0.17769
1768.09148,0.09636
1766.60169,0.09750
1765.11190,0.16228
1763.62212,0.13665
1762.13233,0.22124
1760.64254,0.24498
1759.15275,0.18904
1757.66296,0.13852
1756.17317,0.00475
1754.68339,0.02650
1753.19360,0.05010
1751.70381,0.15527
1750.21402,0.13866
1748.72423,0.04416
1747.23444,0.08767
1745.74465,0.12317
1744.25487,0.20172
1742.76508,0.04383
1741.27529,0.07589
1739.78550,0.10891
1738.29571,0.17333
1736.80592,0.11239
1735.31614,0.19304
1733.82635,0.11070
1732.33656,0.10097
1730.84677,0.04650
1729.35698,0.16050
1727.86719,0.02909
1726.37740,0.10467
1724.88762,0.06653
1723.39783,0.19865
1721.90804,0.10059
1720.41825,0.17190
1718.92846,0.13396
1717.43867,0.01815
1715.94889,0.14335
1714.45910,0.15036
1712.96931,0.12607
1711.47952,0.06241
1709.98973,0.12153
1708.49994,0.09470
1707.01016,0.10958
1705.52037,0.12451
1704.03058,0.16144
1702.54079,0.10257
1701.05100,0.15572
1699.56121,0.20355
1698.07142,0.13857
1696.58164,0.10408
1695.09185,0.20223
1693.60206,0.15621
1692.11227,0.22938
1690.62248,0.33485
1689.13269,0.25852
1687.64291,0.21987
1686.15312,0.25741
1684.66333,0.41593
1683.17354,0.37833
1681.68375,0.31301
1680.19396,0.33284
1678.70417,0.23178
1677.21439,0.10480
1675.72460,0.00475
1674.23481,0.05870
1672.74502,0.15212
1671.25523,0.31278
1669.76544,0.35255
1668.27566,0.22396
1666.78587,0.21009
1665.29608,0.13177
1663.80629,0.17533
1662.31650,0.27000
1660.82671,0.25813
1659.33693,0.33498
1657.84714,0.26588
1656.35735,0.25595
1654.86756,0.04003
1653.37777,0.02751
1651.88798,0.11000
1650.39819,0.14506
1648.90841,0.17391
1647.41862,0.21982
1645.92883,0.20666
1644.43904,0.19356
1642.94925,0.21364
1641.45946,0.13435
1639.96968,0.27368
1638.47989,0.37724
1636.99010,0.29451
1635.50031,0.23423
1634.01052,0.19461
1632.52073,0.15056
1631.03094,0.21405
1629.54116,0.16742
1628.05137,0.11008
1626.56158,0.10207
1625.07179,0.12904
1623.58200,0.07992
1622.09221,0.32915
1620.60243,0.27386
1619.11264,0.19802
1617.62285,0.23063
1616.13306,0.24626
1614.64327,0.39721
1613.15348,0.33411
1611.66370,0.14655
1610.17391,0.15433
1608.68412,0.22038
1607.19433,0.25244
1605.70454,0.29710
1604.21475,0.27059
1602.72496,0.24413
1601.23518,0.21459
1599.74539,0.32305
1598.25560,0.38588
1596.76581,0.41741
1595.27602,0.46690
1593.78623,0.43672
1592.29645,0.24086
1590.80666,0.00475
1589.31687,0.02169
1587.82708,0.14707
1586.33729,0.22323
1584.84750,0.27078
1583.35771,0.36407
1581.86793,0.37141
1580.37814,0.32863
1578.88835,0.35757
1577.39856,0.25488
1575.90877,0.26959
1574.41898,0.15536
1572.92920,0.04386
1571.43941,0.03544
1569.94962,0.04274
1568.45983,0.05009
1566.97004,0.06331
1565.48025,0.01926
1563.99047,0.10515
1562.50068,0.08897
1561.01089,0.11135
1559.52110,0.05675
1558.03131,0.16076
1556.54152,0.12687
1555.05173,0.22650
1553.56195,0.10581
1552.07216,0.15986
1550.58237,0.28383
1549.09258,0.19644
1547.60279,0.21929
1546.11300,0.12753
1544.62322,0.20422
1543.13343,0.22543
1541.64364,0.28879
1540.15385,0.25904
1538.66406,0.22934
1537.17427,0.18178
1535.68448,0.23281
1534.19470,0.09935
1532.70491,0.13346
1531.21512,0.14253
1529.72533,0.00475
1528.23554,0.04170
1526.74575,0.11095
1525.25597,0.20534
1523.76618,0.35531
1522.27639,0.38620
1520.78660,0.24245
1519.29681,0.11757
1517.80702,0.12890
1516.31724,0.08385
1514.82745,0.29236
1513.33766,0.25681
1511.84787,0.22132
1510.35808,0.16482
1508.86829,0.08240
1507.37850,0.20875
1505.88872,0.03954
1504.39893,0.00475
1502.90914,0.02968
1501.41935,0.02241
1499.92956,0.16300
1498.43977,0.23019
1496.94999,0.28846
1495.46020,0.35127
1493.97041,0.27976
1492.48062,0.29340
1490.99083,0.40474
1489.50104,0.57883
1488.01125,0.53798
1486.52147,0.49719
1485.03168,0.53617
1483.54189,0.59401
1482.05210,0.65996
1480.56231,0.72060
1479.07252,0.76068
1477.58274,0.88322
1476.09295,0.97446
1474.60316,0.87585
1473.11337,1.10604
1471.62358,1.16250
1470.13379,0.99327
1468.64401,0.97369
1467.15422,0.92818
1465.66443,0.92572
1464.17464,0.92331
1462.68485,0.93260
1461.19506,0.78249
1459.70527,0.50522
1458.21549,0.44927
1456.72570,0.54565
1455.23591,0.57132
1453.74612,0.67587
1452.25633,0.59146
1450.76654,0.43005
1449.27676,0.31708
1447.78697,0.18086
1446.29718,0.23729
1444.80739,0.26600
1443.31760,0.29477
1441.82781,0.22952
1440.33802,0.32558
1438.84824,0.30074
1437.35845,0.32165
1435.86866,0.17957
1434.37887,0.19520
1432.88908,0.15356
1431.39929,0.06359
1429.90951,0.17164
1428.41972,0.25914
1426.92993,0.32161
1425.44014,0.18258
1423.95035,0.22992
1422.46056,0.27732
1420.97078,0.29162
1419.48099,0.39197
1417.99120,0.43593
1416.50141,0.37872
1415.01162,0.28573
1413.52183,0.25281
1412.03204,0.29071
1410.54226,0.32507
1409.05247,0.44101
1407.56268,0.41725
1406.07289,0.26276
1404.58310,0.29777
1403.09331,0.33284
1401.60353,0.45620
1400.11374,0.46405
1398.62395,0.33937
1397.13416,0.38853
1395.64437,0.52284
1394.15458,0.58464
1392.66479,0.73160
1391.17501,0.58478
1389.68522,0.50430
1388.19543,0.52779
1386.70564,0.56252
1385.21585,0.59731
1383.72606,0.46866
1382.23628,0.54431
1380.74649,0.69167
1379.25670,0.66799
1377.76691,0.65152
1376.27712,0.52134
1374.78733,0.64741
1373.29755,0.77353
1371.80776,0.75458
1370.31797,0.80376
1368.82818,0.87897
1367.33839,0.95423
1365.84860,1.06986
1364.35881,1.01533
1362.86903,1.07372
1361.37924,1.10888
1359.88945,1.17813
1358.39966,0.99481
1356.90987,1.06685
1355.42008,1.08070
1353.93030,1.05699
1352.44051,0.95181
1350.95072,0.84668
1349.46093,0.69055
1347.97114,0.68675
1346.48135,0.69733
1344.99156,0.70348
1343.50178,0.66938
1342.01199,0.59860
1340.52220,0.65418
1339.03241,0.66681
1337.54262,0.60962
1336.05283,0.61473
1334.56305,0.61990
1333.07326,0.51718
1331.58347,0.56858
1330.09368,0.50179
1328.60389,0.46730
1327.11410,0.58426
1325.62432,0.55704
1324.13453,0.49403
1322.64474,0.16951
1321.15495,0.21679
1319.66516,0.18977
1318.17537,0.16281
1316.68558,0.19143
1315.19580,0.16994
1313.70601,0.29990
1312.21622,0.26597
1310.72643,0.18999
1309.23664,0.33443
1307.74685,0.34544
1306.25707,0.20064
1304.76728,0.14233
1303.27749,0.08407
1301.78770,0.19921
1300.29791,0.12000
1298.80812,0.17611
1297.31834,0.12299
1295.82855,0.24818
1294.33876,0.25428
1292.84897,0.40376
1291.35918,0.52731
1289.86939,0.47399
1288.37960,0.42073
1286.88982,0.40110
1285.40003,0.40213
1283.91024,0.45428
1282.42045,0.34254
1280.93066,0.36881
1279.44087,0.41662
1277.95109,0.34445
1276.46130,0.41656
1274.97151,0.36062
1273.48172,0.30473
1271.99193,0.38774
1270.50214,0.44034
1269.01235,0.40072
1267.52257,0.54659
1266.03278,0.51514
1264.54299,0.61095
1263.05320,0.69606
1261.56341,0.67193
1260.07362,0.64785
1258.58384,0.50468
1257.09405,0.56670
1255.60426,0.48096
1254.11447,0.31018
1252.62468,0.36339
1251.13489,0.40680
1249.64511,0.58822
1248.15532,0.52424
1246.66553,0.50062
1245.17574,0.47705
1243.68595,0.27258
1242.19616,0.44082
1240.70637,0.40934
1239.21659,0.26863
1237.72680,0.25517
1236.23701,0.23907
1234.74722,0.34844
1233.25743,0.35215
1231.76764,0.35592
1230.27786,0.39378
1228.78807,0.20863
1227.29828,0.20717
1225.80849,0.34372
1224.31870,0.18471
1222.82891,0.12876
1221.33912,0.19380
1219.84934,0.22171
1218.35955,0.24967
1216.86976,0.34890
1215.37997,0.42400
1213.89018,0.32178
1212.40039,0.23573
1210.91061,0.22229
1209.42082,0.22593
1207.93103,0.22424
1206.44124,0.22260
1204.95145,0.14219
1203.46166,0.19440
1201.97188,0.09975
1200.48209,0.15207
1198.99230,0.06469
1197.50251,0.02036
1196.01272,0.00027
1194.52293,0.06397
1193.03314,0.12773
1191.54336,0.14674
1190.05357,0.26435
1188.56378,0.19658
1187.07399,0.07332
1185.58420,0.00475
1184.09441,0.10924
1182.60463,0.17930
1181.11484,0.24941
1179.62505,0.06651
1178.13526,0.20705
1176.64547,0.10218
1175.15568,0.17473
1173.66589,0.25451
1172.17611,0.18742
1170.68632,0.17816
1169.19653,0.16895
1167.70674,0.33492
1166.21695,0.40868
1164.72716,0.22539
1163.23738,0.24729
1161.74759,0.19937
1160.25780,0.29842
1158.76801,0.28822
1157.27822,0.27808
1155.78843,0.33428
1154.29865,0.39769
1152.80886,0.59195
1151.31907,0.51393
1149.82928,0.48254
1148.33949,0.57214
1146.84970,0.52786
1145.35991,0.48364
1143.87013,0.48292
1142.38034,0.37206
1140.89055,0.43952
1139.40076,0.50165
1137.91097,0.70985
1136.42118,0.72998
1134.93140,0.76988
1133.44161,0.80982
1131.95182,0.74232
1130.46203,0.85672
1128.97224,1.00879
1127.48245,0.97817
1125.99266,0.96641
1124.50288,1.05503
1123.01309,0.98604
1121.52330,0.91711
1120.03351,0.96109
1118.54372,0.95497
1117.05393,0.83423
1115.56415,0.82910
1114.07436,0.86702
1112.58457,0.82168
1111.09478,0.77639
1109.60499,0.90136
1108.11520,1.10610
1106.62542,1.06096
1105.13563,1.08486
1103.64584,0.82214
1102.15605,0.79418
1100.66626,0.79180
1099.17647,0.78947
1097.68668,0.68911
1096.19690,0.68016
1094.70711,0.82445
1093.21732,0.94281
1091.72753,0.93760
1090.23774,0.94499
1088.74795,0.95242
1087.25817,0.97424
1085.76838,1.00596
1084.27859,1.04222
1082.78880,1.12689
1081.29901,1.09696
1079.80922,1.08141
1078.31943,1.12369
1076.82965,1.16602
1075.33986,1.24648
1073.85007,1.31802
1072.36028,1.24629
1070.87049,1.17999
1069.38070,1.15853
1067.89092,1.16802
1066.40113,1.17756
1064.91134,1.07205
1063.42155,1.18516
1061.93176,1.07437
1060.44197,1.08994
1058.95219,1.09481
1057.46240,1.08585
1055.97261,1.07694
1054.48282,1.08555
1052.99303,1.01986
1051.50324,1.04559
1050.01345,0.97104
1048.52367,0.90103
1047.03388,0.79344
1045.54409,0.68590
1044.05430,0.58647
1042.56451,0.46649
1041.07472,0.32596
1039.58494,0.46049
1038.09515,0.59597
1036.60536,0.57563
1035.11557,0.55534
1033.62578,0.56915
1032.13599,0.40026
1030.64620,0.44283
1029.15642,0.42991
1027.66663,0.37763
1026.17684,0.32540
1024.68705,0.55271
1023.19726,0.78007
1021.70747,0.92596
1020.21769,1.02353
1018.72790,1.16057
1017.23811,1.26004
1015.74832,1.35955
1014.25853,1.54422
1012.76874,1.63130
1011.27896,1.77487
1009.78917,2.00000
1008.29938,1.98780
1006.80959,1.97654
1005.31980,1.96533
1003.83001,1.78846
1002.34022,1.75317
1000.85044,1.72689
999.36065,1.55822
997.87086,1.51144
996.38107,1.46471
994.89128,1.48163
993.40149,1.46188
991.91171,1.42605
990.42192,1.36340
988.93213,1.17807
987.44234,1.15897
985.95255,1.13992
984.46276,1.28530
982.97297,1.18438
981.48319,1.12024
979.99340,0.79190
978.50361,0.77265
977.01382,0.75346
975.52403,0.84181
974.03424,0.97769
972.54446,0.90222
971.05467,0.62166
969.56488,0.55255
968.07509,0.48977
966.58530,0.42704
965.09551,0.40109
963.60573,0.42894
962.11594,0.30634
960.62615,0.10765
959.13636,0.19478
957.64657,0.28195
956.15678,0.28766
954.66699,0.30507
953.17721,0.26788
951.68742,0.22447
950.19763,0.22277
948.70784,0.22112
947.21805,0.26565
945.72826,0.29680
944.23848,0.21961
942.74869,0.31536
941.25890,0.46221
939.76911,0.44788
938.27932,0.43360
936.78953,0.53224
935.29974,0.53418
933.80996,0.60426
932.32017,0.81682
930.83038,0.79025
929.34059,0.76373
927.85080,0.76235
926.36101,0.79595
924.87123,0.89410
923.38144,0.80777
921.89165,0.85989
920.40186,0.91206
918.91207,1.04088
917.42228,1.04164
915.93250,0.95467
914.44271,0.88387
912.95292,0.84224
911.46313,0.80066
909.97334,0.72375
908.48355,0.55103
906.99376,0.50288
905.50398,0.27742
904.01419,0.29925
902.52440,0.32113
901.03461,0.36277
899.54482,0.47612
898.05503,0.34228
896.56525,0.38945
895.07546,0.44517
893.58567,0.50095
892.09588,0.48198
890.60609,0.53652
889.11630,0.64485
887.62651,0.83655
886.13673,0.82316
884.64694,0.80982
883.15715,0.93180
881.66736,0.89348
880.17757,0.78085
878.68778,0.84565
877.19800,0.91050
875.70821,1.02826
874.21842,1.12367
872.72863,1.27556
871.23884,1.35047
869.74905,1.43708
868.25927,1.52373
866.76948,1.47607
865.27969,1.57178
863.78990,1.58872
862.30011,1.60302
860.81032,1.54929
859.32053,1.49561
857.83075,1.53246
856.34096,1.57025
854.85117,1.58122
853.36138,1.48385
851.87159,1.39191
850.38180,1.30002
848.89202,1.13114
847.40223,0.98650
845.91244,1.05779
844.42265,0.95312
842.93286,0.84849
841.44307,0.76944
839.95329,0.54354
838.46350,0.57657
836.97371,0.65444
835.48392,0.64503
833.99413,0.63566
832.50434,0.38404
831.01455,0.31072
829.52477,0.39602
828.03498,0.37387
826.54519,0.43866
825.05540,0.50351
823.56561,0.57378
822.07582,0.44613
820.58604,0.27822
819.09625,0.29310
817.60646,0.30804
816.11667,0.35259
814.62688,0.18488
813.13709,0.09964
811.64730,0.01535
810.15752,0.02113
808.66773,0.02697
807.17794,0.08347
805.68815,0.16331
804.19836,0.04792
802.70857,0.10815
801.21879,0.16844
799.72900,0.26103
798.23921,0.22826
796.74942,0.07549
795.25963,0.06970
793.76984,0.06395
792.28006,0.20158
790.79027,0.11442
789.30048,0.03268
787.81069,0.00475
786.32090,0.04731
784.83111,0.08992
783.34132,0.09675
781.85154,0.10900
780.36175,0.06935
778.87196,0.08350
777.38217,0.09770
775.89238,0.00804
774.40259,0.14686
772.91281,0.13613
771.42302,0.14561
769.93323,0.15514
768.44344,0.07379
766.95365,0.04893
765.46386,0.04563
763.97407,0.00475
762.48429,0.01996
760.99450,0.03522
759.50471,0.27672
758.01492,0.15905
756.52513,0.09340
755.03534,0.11155
753.54556,0.12975
752.05577,0.01318
750.56598,0.03731
749.07619,0.13315
747.58640,0.16724
746.09661,0.20137
744.60683,0.17554
743.11704,0.08436
741.62725,0.07834
740.13746,0.08849
738.64767,0.09870
737.15788,0.15643
735.66809,0.08432
734.17831,0.09109
732.68852,0.08045
731.19873,0.06985
729.70894,0.08843
728.21915,0.25307
726.72936,0.15260
725.23958,0.08353
723.74979,0.09335
722.26000,0.10322
720.77021,0.00475
719.28042,0.10815
717.79063,0.22504
716.30084,0.25867
714.81106,0.29235
713.32127,0.18365
711.83148,0.16817
710.34169,0.22798
708.85190,0.20050
707.36211,0.17308
705.87233,0.23663
704.38254,0.11032
702.89275,0.12649
701.40296,0.18034
699.91317,0.23424
698.42338,0.15651
696.93360,0.25799
695.44381,0.24397
693.95402,0.23581
692.46423,0.22771
690.97444,0.32581
689.48465,0.35051
687.99486,0.31434
686.50508,0.35840
685.01529,0.40251
683.52550,0.62359
682.03571,0.42190
680.54592,0.37614
679.05613,0.36491
677.56635,0.35373
676.07656,0.33589
674.58677,0.27152
673.09698,0.42488
671.60719,0.41166
670.11740,0.39850
668.62761,0.28865
667.13783,0.21109
665.64804,0.20839
664.15825,0.20574
662.66846,0.03338
661.17867,0.17819
659.68888,0.12686
658.19910,0.09396
656.70931,0.06110
655.21952,0.08339
653.72973,0.20695
652.23994,0.20337
650.75015,0.24462
649.26037,0.28592
647.77058,0.09705
646.28079,0.13219
644.79100,0.32773
643.30121,0.25412
641.81142,0.18057
640.32163,0.19262
638.83185,0.20920
637.34206,0.22583
635.85227,0.11575
634.36248,0.00573
632.87269,0.00475
631.38290,0.17896
629.89312,0.12659
628.40333,0.13833
626.91354,0.15011
625.42375,0.14985
623.93396,0.13352
622.44417,0.16874
620.95438,0.20402
619.46460,0.25323
617.97481,0.04809
616.48502,0.23536
614.99523,0.24173
613.50544,0.24814
612.01565,0.38719
610.52587,0.27726
609.03608,0.21665
607.54629,0.24522
606.05650,0.27384
604.56671,0.29669
603.07692,0.32138
601.58714,0.26685
600.09735,0.21236
598.60756,0.25333
597.11777,0.20746
595.62798,0.25212
594.13819,0.21889
592.64840,0.18571
591.15862,0.18662
589.66883,0.18401
588.17904,0.24146
586.68925,0.28911
585.19946,0.33681
583.70967,0.34694
582.21989,0.31770
580.73010,0.34898
579.24031,0.38031
577.75052,0.32256
576.26073,0.43328
574.77094,0.32636
573.28115,0.35745
571.79137,0.38859
570.30158,0.37857
568.81179,0.45819
567.32200,0.46440
565.83221,0.47066
564.34242,0.62747
562.85264,0.86405
561.36285,0.72893
559.87306,0.75018
558.38327,0.77147
556.89348,0.97154
555.40369,1.21286
553.91391,1.20698
552.42412,1.20116
550.93433,1.32260
549.44454,1.35271
547.95475,1.40169
546.46496,1.32486
544.97517,1.24807
543.48539,1.12790
541.99560,1.18156
540.50581,1.16181
539.01602,1.14212
537.52623,1.26491
536.03644,1.21486
534.54666,1.20607
533.05687,1.24481
531.56708,1.28360
530.07729,1.32154
528.58750,1.28518
527.09771,1.18528
525.60792,1.08542
524.11814,1.17015
522.62835,1.00321
521.13856,0.83005
519.64877,0.81057
518.15898,0.79115
516.66919,0.84926
515.17941,0.84830
513.68962,0.83485
512.19983,0.82145
510.71004,1.07415
509.22025,0.94350
507.73046,0.84068
506.24068,0.82166
504.75089,0.80269
503.26110,0.74122
501.77131,0.78820
500.28152,0.86479
498.79173,0.94143
497.30194,0.76461
495.81216,0.75087
494.32237,0.74077
492.83258,0.73073
491.34279,0.74044
489.85300,0.60597
488.36321,0.64355
486.87343,0.55533
485.38364,0.46715
483.89385,0.38485
482.40406,0.42084
480.91427,0.40449
479.42448,0.38818
477.93469,0.35714
476.44491,0.17118
474.95512,0.15950
473.46533,0.14788
471.97554,0.11436
470.48575,0.00475
468.99596,0.04432
467.50618,0.02214
466.01639,0.00000
464.52660,0.06268
463.03681,0.20155
461.54702,0.25806
460.05723,0.31463
458.56745,0.28076
457.07766,0.39834
455.58787,0.42415
454.09808,0.45001
452.60829,0.44144
451.11850,0.39977
449.62871,0.52522
448.13893,0.65072
446.64914,0.83942
445.15935,0.85708
443.66956,0.77715
442.17977,0.84238
440.68998,0.90767
439.20020,0.99272
437.71041,0.88701
436.22062,0.85436
434.73083,0.82176
433.24104,0.96793
431.75125,0.93677
430.26146,0.98451
428.77168,1.03229
427.28189,0.90185
425.79210,0.94705
424.30231,0.96990
422.81252,0.99280
421.32273,0.92259
419.83295,1.07638
418.34316,1.07122
416.85337,1.06611
415.36358,1.02119
413.87379,0.93331
412.38400,1.01749
410.89422,1.10171
409.40443,1.14299
407.91464,0.80450
406.42485,0.73749
404.93506,0.75294
403.44527,0.76845
401.95548,0.56721
400.46570,0.56670
398.97591,0.59534
397.48612,0.62404
395.99633,0.54037
394.50654,0.26414
393.01675,0.31225
391.52697,0.36041
390.03718,0.45879
388.54739,0.57245
387.05760,0.56343
385.56781,0.55447
384.07802,0.51689
382.58824,0.41486
381.09845,0.40560
379.60866,0.39639
378.11887,0.30347
376.62908,0.26615
375.13929,0.28710
373.64950,0.30810
372.15972,0.21539
370.66993,0.11288
369.18014,0.05879
367.69035,0.00475
366.20056,0.20320
364.71077,0.28077
363.22099,0.32749
361.73120,0.37425
360.24141,0.23609
358.75162,0.17233
357.26183,0.20984
355.77204,0.24741
354.28225,0.23038
352.79247,0.24566
351.30268,0.20723
349.81289,0.16886
348.32310,0.22728
346.83331,0.32428
345.34352,0.29412
343.85374,0.26402
342.36395,0.23575
340.87416,0.26935
339.38437,0.30837
337.89458,0.34745
336.40479,0.35433
334.91501,0.13014
333.42522,0.07933
331.93543,0.02859
330.44564,0.26322
328.95585,0.40742
327.46606,0.39402
325.97627,0.38067
324.48649,0.21597
322.99670,0.24661
321.50691,0.14473
320.01712,0.04289
318.52733,0.04323
317.03754,0.11170
315.54776,0.11528
314.05797,0.11891
312.56818,0.28786
311.07839,0.30727
309.58860,0.26312
308.09881,0.21903
306.60902,0.06122
305.11924,0.09068
303.62945,0.06511
302.13966,0.00475
300.64987,0.10371
299.16008,0.00475
