1778.52000,0.07023
1777.03021,0.06150
1775.54042,0.18074
1774.05063,0.11641
1772.56085,0.15710
1771.07106,0.16508
1769.58127,0.00260
1768.09148,0.13206
1766.60169,0.16322
1765.11190,0.10919
1763.62212,0.10115
1762.13233,0.24731
1760.64254,0.08858
1759.15275,0.32671
1757.66296,0.16485
1756.17317,0.16047
1754.68339,0.11025
1753.19360,0.05028
1751.70381,0.14451
1750.21402,0.07813
1748.72423,0.23481
1747.23444,0.14891
1745.74465,0.18114
1744.25487,0.04948
1742.76508,0.09497
1741.27529,0.11431
1739.78550,0.05831
1738.29571,0.14010
1736.80592,0.06130
1735.31614,0.23506
1733.82635,0.23183
1732.33656,0.04504
1730.84677,0.00260
1729.35698,0.05181
1727.86719,0.01584
1726.37740,0.10127
1724.88762,0.03921
1723.39783,0.02314
1721.90804,0.14816
1720.41825,0.13880
1718.92846,0.11312
1717.43867,0.20885
1715.94889,0.19972
1714.45910,0.27920
1712.96931,0.09315
1711.47952,0.18262
1709.98973,0.15412
1708.49994,0.17161
1707.01016,0.17113
1705.52037,0.17074
1704.03058,0.13271
1702.54079,0.10131
1701.05100,0.23723
1699.56121,0.15024
1698.07142,0.23712
1696.58164,0.12733
1695.09185,0.25372
1693.60206,0.24901
1692.11227,0.22799
1690.62248,0.17097
1689.13269,0.26159
1687.64291,0.17521
1686.15312,0.28894
1684.66333,0.26830
1683.17354,0.17559
1681.68375,0.24692
1680.19396,0.16748
1678.70417,0.33406
1677.21439,0.20559
1675.72460,0.09686
1674.23481,0.10627
1672.74502,0.13871
1671.25523,0.22697
1669.76544,0.15134
1668.27566,0.10203
1666.78587,0.07246
1665.29608,0.22661
1663.80629,0.16441
1662.31650,0.30560
1660.82671,0.21731
1659.33693,0.24060
1657.84714,0.14919
1656.35735,0.04474
1654.86756,0.18303
1653.37777,0.06890
1651.88798,0.12536
1650.39819,0.11959
1648.90841,0.14669
1647.41862,0.15419
1645.92883,0.16505
1644.43904,0.17598
1642.94925,0.00008
1641.45946,0.35549
1639.96968,0.15350
1638.47989,0.22376
1636.99010,0.27115
1635.50031,0.17761
1634.01052,0.30713
1632.52073,0.23342
1631.03094,0.25160
1629.54116,0.09277
1628.05137,0.32754
1626.56158,0.04754
1625.07179,0.19391
1623.58200,0.00260
1622.09221,0.20477
1620.60243,0.13484
1619.11264,0.13712
1617.62285,0.17228
1616.13306,0.23046
1614.64327,0.24281
1613.15348,0.35362
1611.66370,0.13657
1610.17391,0.16883
1608.68412,0.11590
1607.19433,0.25981
1605.70454,0.27262
1604.21475,0.24779
1602.72496,0.22305
1601.23518,0.08852
1599.74539,0.22625
1598.25560,0.10827
1596.76581,0.11170
1595.27602,0.15784
1593.78623,0.03025
1592.29645,0.07982
1590.80666,0.15898
1589.31687,0.10377
1587.82708,0.15029
1586.33729,0.15097
1584.84750,0.06320
1583.35771,0.09027
1581.86793,0.24531
1580.37814,0.28238
1578.88835,0.19491
1577.39856,0.24524
1575.90877,0.10873
1574.41898,0.13299
1572.92920,0.04910
1571.43941,0.27026
1569.94962,0.22096
1568.45983,0.17174
1566.97004,0.16358
1565.48025,0.18173
1563.99047,0.08847
1562.50068,0.01823
1561.01089,0.03333
1559.52110,0.00260
1558.03131,0.20743
1556.54152,0.13688
1555.05173,0.17790
1553.56195,0.20588
1552.07216,0.18147
1550.58237,0.19649
1549.09258,0.27716
1547.60279,0.25298
1546.11300,0.00260
1544.62322,0.21387
1543.13343,0.29076
1541.64364,0.24968
1540.15385,0.21851
1538.66406,0.18741
1537.17427,0.22198
1535.68448,0.22711
1534.19470,0.16345
1532.70491,0.06052
1531.21512,0.01341
1529.72533,0.17297
1528.23554,0.22439
1526.74575,0.13488
1525.25597,0.09136
1523.76618,0.19548
1522.27639,0.23081
1520.78660,0.15472
1519.29681,0.13446
1517.80702,0.24544
1516.31724,0.10728
1514.82745,0.20858
1513.33766,0.19026
1511.84787,0.17202
1510.35808,0.02760
1508.86829,0.13249
1507.37850,0.14563
1505.88872,0.12605
1504.39893,0.10983
1502.90914,0.02482
1501.41935,0.10386
1499.92956,0.00260
1498.43977,0.14643
1496.94999,0.17556
1495.46020,0.28675
1493.97041,0.36522
1492.48062,0.46672
1490.99083,0.40106
1489.50104,0.51255
1488.01125,0.54049
1486.52147,0.56852
1485.03168,0.46381
1483.54189,0.57889
1482.05210,0.59238
1480.56231,0.66498
1479.07252,0.67207
1477.58274,0.96125
1476.09295,0.79798
1474.60316,0.84137
1473.11337,1.03240
1471.62358,1.16777
1470.13379,1.06710
1468.64401,1.11408
1467.15422,1.09227
1465.66443,1.04922
1464.17464,1.00625
1462.68485,0.88301
1461.19506,0.83527
1459.70527,0.64988
1458.21549,0.50064
1456.72570,0.64660
1455.23591,0.61229
1453.74612,0.51574
1452.25633,0.40615
1450.76654,0.29008
1449.27676,0.40036
1447.78697,0.44513
1446.29718,0.36536
1444.80739,0.36273
1443.31760,0.36018
1441.82781,0.29376
1440.33802,0.34219
1438.84824,0.36118
1437.35845,0.26220
1435.86866,0.00260
1434.37887,0.18335
1432.88908,0.11822
1431.39929,0.15483
1429.90951,0.22103
1428.41972,0.18237
1426.92993,0.36349
1425.44014,0.33154
1423.95035,0.30459
1422.46056,0.27771
1420.97078,0.18696
1419.48099,0.31600
1417.99120,0.39592
1416.50141,0.48904
1415.01162,0.39204
1413.52183,0.28200
1412.03204,0.18516
1410.54226,0.24251
1409.05247,0.29010
1407.56268,0.32793
1406.07289,0.30025
1404.58310,0.33004
1403.09331,0.35990
1401.60353,0.39804
1400.11374,0.40674
1398.62395,0.33681
1397.13416,0.45060
1395.64437,0.32180
1394.15458,0.59643
1392.66479,0.55960
1391.17501,0.52941
1389.68522,0.52224
1388.19543,0.39055
1386.70564,0.46880
1385.21585,0.54713
1383.72606,0.72063
1382.23628,0.67122
1380.74649,0.63828
1379.25670,0.51360
1377.76691,0.70053
1376.27712,0.61208
1374.78733,0.51714
1373.29755,0.92400
1371.80776,0.49146
1370.31797,0.83289
1368.82818,0.83827
1367.33839,0.84374
1365.84860,1.30345
1364.35881,1.15330
1362.86903,1.00979
1361.37924,1.19427
1359.88945,1.10338
1358.39966,1.14045
1356.90987,1.01692
1355.42008,1.17548
1353.93030,1.03570
1352.44051,0.99602
1350.95072,0.95641
1349.46093,0.81359
1347.97114,0.79873
1346.48135,0.79378
1344.99156,0.57576
1343.50178,0.78740
1342.01199,0.53018
1340.52220,0.67639
1339.03241,0.52426
1337.54262,0.55912
1336.05283,0.47929
1334.56305,0.39953
1333.07326,0.43135
1331.58347,0.37470
1330.09368,0.45913
1328.60389,0.47478
1327.11410,0.35606
1325.62432,0.55549
1324.13453,0.21721
1322.64474,0.08560
1321.15495,0.20328
1319.66516,0.16364
1318.17537,0.12408
1316.68558,0.09443
1315.19580,0.17963
1313.70601,0.29113
1312.21622,0.16989
1310.72643,0.28156
1309.23664,0.05553
1307.74685,0.16079
1306.25707,0.05625
1304.76728,0.04689
1303.27749,0.03760
1301.78770,0.10381
1300.29791,0.06516
1298.80812,0.15448
1297.31834,0.04385
1295.82855,0.24153
1294.33876,0.25238
1292.84897,0.31249
1291.35918,0.29725
1289.86939,0.18208
1288.37960,0.06698
1286.88982,0.07821
1285.40003,0.16821
1283.91024,0.41898
1282.42045,0.43044
1280.93066,0.32064
1279.44087,0.27323
1277.95109,0.50134
1276.46130,0.32291
1274.97151,0.31508
1273.48172,0.30732
1271.99193,0.34226
1270.50214,0.33794
1269.01235,0.39927
1267.52257,0.50003
1266.03278,0.24343
1264.54299,0.57062
1263.05320,0.32073
1261.56341,0.29390
1260.07362,0.26716
1258.58384,0.38805
1257.09405,0.48607
1255.60426,0.50218
1254.11447,0.38064
1252.62468,0.51168
1251.13489,0.51491
1249.64511,0.46902
1248.15532,0.34123
1246.66553,0.29549
1245.17574,0.24983
1243.68595,0.36822
1242.19616,0.40797
1240.70637,0.28384
1239.21659,0.20569
1237.72680,0.20961
1236.23701,0.24639
1234.74722,0.41114
1233.25743,0.40872
1231.76764,0.40638
1230.27786,0.31558
1228.78807,0.39865
1227.29828,0.26209
1225.80849,0.22726
1224.31870,0.28433
1222.82891,0.12505
1221.33912,0.09373
1219.84934,0.14775
1218.35955,0.20184
1216.86976,0.33799
1215.37997,0.14302
1213.89018,0.20718
1212.40039,0.23863
1210.91061,0.25375
1209.42082,0.38701
1207.93103,0.31539
1206.44124,0.24384
1204.95145,0.13466
1203.46166,0.00260
1201.97188,0.02029
1200.48209,0.04790
1198.99230,0.11821
1197.50251,0.09350
1196.01272,0.00000
1194.52293,0.05663
1193.03314,0.11333
1191.54336,0.10616
1190.05357,0.34829
1188.56378,0.41342
1187.07399,0.16382
1185.58420,0.18975
1184.09441,0.00260
1182.60463,0.14957
1181.11484,0.29661
1179.62505,0.18630
1178.13526,0.26299
1176.64547,0.17251
1175.15568,0.25591
1173.66589,0.03770
1172.17611,0.23602
1170.68632,0.21964
1169.19653,0.20332
1167.70674,0.34613
1166.21695,0.13486
1164.72716,0.30405
1163.23738,0.23394
1161.74759,0.22949
1160.25780,0.13001
1158.76801,0.14047
1157.27822,0.15101
1155.78843,0.43543
1154.29865,0.50678
1152.80886,0.47656
1151.31907,0.58085
1149.82928,0.57701
1148.33949,0.58964
1146.84970,0.50562
1145.35991,0.42166
1143.87013,0.50667
1142.38034,0.53600
1140.89055,0.52934
1139.40076,0.58834
1137.91097,0.70644
1136.42118,0.80494
1134.93140,0.86581
1133.44161,0.92676
1131.95182,0.68117
1130.46203,0.82261
1128.97224,0.88870
1127.48245,0.92864
1125.99266,0.97849
1124.50288,1.01530
1123.01309,0.92757
1121.52330,0.83992
1120.03351,0.91631
1118.54372,0.96327
1117.05393,0.82010
1115.56415,0.69996
1114.07436,0.77338
1112.58457,0.77637
1111.09478,0.77943
1109.60499,0.95473
1108.11520,1.09732
1106.62542,0.84647
1105.13563,0.85476
1103.64584,0.91888
1102.15605,0.78631
1100.66626,0.65382
1099.17647,0.52141
1097.68668,0.83833
1096.19690,0.70279
1094.70711,0.67554
1093.21732,0.97958
1091.72753,0.84755
1090.23774,0.88775
1088.74795,0.92804
1087.25817,1.17335
1085.76838,1.01867
1084.27859,1.09361
1082.78880,1.08337
1081.29901,1.11912
1079.80922,1.10575
1078.31943,1.04656
1076.82965,0.98743
1075.33986,1.23664
1073.85007,1.29244
1072.36028,1.37783
1070.87049,1.11242
1069.38070,1.21765
1067.89092,1.20161
1066.40113,1.18565
1064.91134,1.13698
1063.42155,1.38351
1061.93176,1.16775
1060.44197,1.16194
1058.95219,1.15948
1057.46240,1.06528
1055.97261,0.97116
1054.48282,0.94925
1052.99303,0.75690
1051.50324,0.84009
1050.01345,0.87744
1048.52367,0.85584
1047.03388,0.84415
1045.54409,0.83254
1044.05430,0.70952
1042.56451,0.38326
1041.07472,0.38171
1039.58494,0.48847
1038.09515,0.48052
1036.60536,0.44477
1035.11557,0.40911
1033.62578,0.38499
1032.13599,0.39703
1030.64620,0.37306
1029.15642,0.50658
1027.66663,0.52541
1026.17684,0.54430
1024.68705,0.56656
1023.19726,0.64463
1021.70747,0.80805
1020.21769,1.05024
1018.72790,1.04657
1017.23811,1.17906
1015.74832,1.31163
1014.25853,1.54101
1012.76874,1.71144
1011.27896,2.00000
1009.78917,1.97055
1008.29938,1.99037
1006.80959,1.94959
1005.31980,1.90889
1003.83001,1.97157
1002.34022,1.71623
1000.85044,1.72659
999.36065,1.59602
997.87086,1.53439
996.38107,1.47283
994.89128,1.59500
993.40149,1.78282
991.91171,1.84282
990.42192,1.51596
988.93213,1.32689
987.44234,1.20841
985.95255,1.09000
984.46276,1.23893
982.97297,1.06329
981.48319,1.15991
979.99340,0.95163
978.50361,0.93526
977.01382,0.91897
975.52403,0.71420
974.03424,0.76856
972.54446,0.66232
971.05467,0.63486
969.56488,0.48286
968.07509,0.46539
966.58530,0.44799
965.09551,0.47330
963.60573,0.25931
962.11594,0.39626
960.62615,0.36278
959.13636,0.35068
957.64657,0.33866
956.15678,0.22015
954.66699,0.18697
953.17721,0.44899
951.68742,0.33726
950.19763,0.33219
948.70784,0.32719
947.21805,0.13698
945.72826,0.00260
944.23848,0.16568
942.74869,0.30588
941.25890,0.48550
939.76911,0.42254
938.27932,0.35965
936.78953,0.50015
935.29974,0.42430
933.80996,0.69285
932.32017,0.63027
930.83038,0.67434
929.34059,0.71849
927.85080,0.83977
926.36101,0.82997
924.87123,0.88910
923.38144,0.72860
921.89165,0.80592
920.40186,0.88332
918.91207,1.06081
917.42228,1.13017
915.93250,0.97333
914.44271,0.88543
912.95292,0.87467
911.46313,0.86399
909.97334,0.68122
908.48355,0.72480
906.99376,0.38478
905.50398,0.38588
904.01419,0.36738
902.52440,0.34896
901.03461,0.46834
899.54482,0.39432
898.05503,0.41876
896.56525,0.69578
895.07546,0.70725
893.58567,0.71880
892.09588,0.59926
890.60609,0.59784
889.11630,0.57027
887.62651,0.58212
886.13673,0.65800
884.64694,0.73395
883.15715,0.90016
881.66736,0.81067
880.17757,1.00654
878.68778,1.01394
877.19800,1.02141
875.70821,0.97485
874.21842,1.18415
872.72863,1.30498
871.23884,1.13732
869.74905,1.27306
868.25927,1.40888
866.76948,1.50051
865.27969,1.44137
863.78990,1.33639
862.30011,1.36922
860.81032,1.44312
859.32053,1.51709
857.83075,1.57311
856.34096,1.45540
854.85117,1.48205
853.36138,1.34810
851.87159,1.34867
850.38180,1.34932
848.89202,0.99260
847.40223,1.19016
845.91244,0.92870
844.42265,0.85587
842.93286,0.78312
841.44307,0.71208
839.95329,0.81492
838.46350,0.76044
836.97371,0.79128
835.48392,0.66644
833.99413,0.54168
832.50434,0.43176
831.01455,0.23664
829.52477,0.32690
828.03498,0.39100
826.54519,0.45190
825.05540,0.51287
823.56561,0.49522
822.07582,0.09398
820.58604,0.08631
819.09625,0.12792
817.60646,0.16960
816.11667,0.27694
814.62688,0.22040
813.13709,0.00981
811.64730,0.00260
810.15752,0.08221
808.66773,0.16190
807.17794,0.33185
805.68815,0.20018
804.19836,0.26861
802.70857,0.22072
801.21879,0.17290
799.72900,0.14974
798.23921,0.25128
796.74942,0.26436
795.25963,0.15617
793.76984,0.04807
792.28006,0.05481
790.79027,0.05508
789.30048,0.18659
787.81069,0.34113
786.32090,0.23996
784.83111,0.13887
783.34132,0.16903
781.85154,0.09105
780.36175,0.04594
778.87196,0.05501
777.38217,0.06416
775.89238,0.25866
774.40259,0.17778
772.91281,0.07403
771.42302,0.23597
769.93323,0.39798
768.44344,0.00260
766.95365,0.26630
765.46386,0.23166
763.97407,0.11839
762.48429,0.16097
760.99450,0.20362
759.50471,0.29717
758.01492,0.25635
756.52513,0.20578
755.03534,0.21922
753.54556,0.23274
752.05577,0.16599
750.56598,0.07637
749.07619,0.46559
747.58640,0.35317
746.09661,0.24082
744.60683,0.18101
743.11704,0.24262
741.62725,0.00260
740.13746,0.12238
738.64767,0.24223
737.15788,0.22443
735.66809,0.25918
734.17831,0.24809
732.68852,0.29938
731.19873,0.35076
729.70894,0.38908
728.21915,0.28320
726.72936,0.21019
725.23958,0.16677
723.74979,0.18573
722.26000,0.20477
720.77021,0.18453
719.28042,0.12502
717.79063,0.15084
716.30084,0.16690
714.81106,0.18304
713.32127,0.33371
711.83148,0.30081
710.34169,0.32046
708.85190,0.20246
707.36211,0.08453
705.87233,0.32083
704.38254,0.08173
702.89275,0.40017
701.40296,0.32682
699.91317,0.25354
698.42338,0.30659
696.93360,0.20888
695.44381,0.33422
693.95402,0.37439
692.46423,0.41463
690.97444,0.38936
689.48465,0.37073
687.99486,0.38168
686.50508,0.31565
685.01529,0.24970
683.52550,0.36254
682.03571,0.49842
680.54592,0.31628
679.05613,0.39656
677.56635,0.47691
676.07656,0.58030
674.58677,0.41159
673.09698,0.19376
671.60719,0.22359
670.11740,0.25350
668.62761,0.17363
667.13783,0.10368
665.64804,0.22236
664.15825,0.34111
662.66846,0.51405
661.17867,0.36570
659.68888,0.16168
658.19910,0.14465
656.70931,0.12770
655.21952,0.00260
653.72973,0.17993
652.23994,0.34094
650.75015,0.31838
649.26037,0.29590
647.77058,0.32597
646.28079,0.03475
644.79100,0.28467
643.30121,0.24774
641.81142,0.21089
640.32163,0.23150
638.83185,0.26858
637.34206,0.18769
635.85227,0.15442
634.36248,0.12123
632.87269,0.13238
631.38290,0.00260
629.89312,0.23637
628.40333,0.19147
626.91354,0.14665
625.42375,0.22324
623.93396,0.11955
622.44417,0.18481
620.95438,0.25015
619.46460,0.19916
617.97481,0.08266
616.48502,0.31055
614.99523,0.16141
613.50544,0.01234
612.01565,0.25686
610.52587,0.13418
609.03608,0.47722
607.54629,0.37601
606.05650,0.27488
604.56671,0.22792
603.07692,0.12202
601.58714,0.12441
600.09735,0.12687
598.60756,0.31633
597.11777,0.17795
595.62798,0.28886
594.13819,0.23916
592.64840,0.18954
591.15862,0.14655
589.66883,0.06757
588.17904,0.43793
586.68925,0.31483
585.19946,0.19181
583.70967,0.36564
582.21989,0.30671
580.73010,0.25442
579.24031,0.20221
577.75052,0.12384
576.26073,0.43250
574.77094,0.77731
573.28115,0.70573
571.79137,0.63422
570.30158,0.57263
568.81179,0.69803
567.32200,0.60544
565.83221,0.51293
564.34242,0.79269
562.85264,0.68229
561.36285,0.66706
559.87306,0.66668
558.38327,0.66636
556.89348,1.11046
555.40369,1.24967
553.91391,1.38403
552.42412,1.51848
550.93433,1.35950
549.44454,1.22684
547.95475,1.43529
546.46496,1.31590
544.97517,1.19658
543.48539,1.23802
541.99560,1.36480
540.50581,1.26047
539.01602,1.15621
537.52623,1.40127
536.03644,1.36767
534.54666,1.22593
533.05687,1.33186
531.56708,1.43785
530.07729,1.19141
528.58750,1.13524
527.09771,1.16768
525.60792,1.20020
524.11814,1.35413
522.62835,1.12446
521.13856,0.70796
519.64877,0.80637
518.15898,0.90486
516.66919,0.82962
515.17941,0.97745
513.68962,0.87941
512.19983,0.78145
510.71004,0.81474
509.22025,1.07437
507.73046,0.83891
506.24068,0.98063
504.75089,1.12244
503.26110,0.97575
501.77131,1.00621
500.28152,0.88263
498.79173,0.75912
497.30194,0.87836
495.81216,0.80419
494.32237,0.79240
492.83258,0.78070
491.34279,0.66741
489.85300,0.74767
488.36321,0.91984
486.87343,0.73955
485.38364,0.55935
483.89385,0.53170
482.40406,0.33033
480.91427,0.36842
479.42448,0.40659
477.93469,0.12675
476.44491,0.18147
474.95512,0.23954
473.46533,0.29769
471.97554,0.11654
470.48575,0.21091
468.99596,0.34471
467.50618,0.17362
466.01639,0.00260
464.52660,0.47278
463.03681,0.46754
461.54702,0.53123
460.05723,0.59501
458.56745,0.51457
457.07766,0.48340
455.58787,0.47363
454.09808,0.46393
452.60829,0.63958
451.11850,0.87105
449.62871,0.74845
448.13893,0.62592
446.64914,1.04782
445.15935,0.91560
443.66956,1.21304
442.17977,1.14329
440.68998,1.07361
439.20020,0.84988
437.71041,0.83938
436.22062,0.94209
434.73083,1.04487
433.24104,1.13626
431.75125,1.29986
430.26146,1.16349
428.77168,1.02720
427.28189,1.07626
425.79210,1.47300
424.30231,1.33857
422.81252,1.20422
421.32273,0.92566
419.83295,1.03413
418.34316,1.04758
416.85337,1.06110
415.36358,1.04519
413.87379,1.19660
412.38400,1.14149
410.89422,1.08645
409.40443,1.02165
407.91464,0.75034
406.42485,0.77752
404.93506,0.73754
403.44527,0.69765
401.95548,0.70210
400.46570,0.88370
398.97591,0.74238
397.48612,0.60113
395.99633,0.45504
394.50654,0.65007
393.01675,0.58448
391.52697,0.51896
390.03718,0.52402
388.54739,0.56523
387.05760,0.64915
385.56781,0.73314
384.07802,0.74507
382.58824,0.37995
381.09845,0.32153
379.60866,0.26318
378.11887,0.53447
376.62908,0.42545
375.13929,0.34437
373.64950,0.26337
372.15972,0.21688
370.66993,0.59021
369.18014,0.43075
367.69035,0.27135
366.20056,0.46455
364.71077,0.32335
363.22099,0.49539
361.73120,0.66750
360.24141,0.41175
358.75162,0.08066
357.26183,0.17186
355.77204,0.26314
354.28225,0.39385
352.79247,0.24262
351.30268,0.31282
349.81289,0.38309
348.32310,0.39277
346.83331,0.38941
345.34352,0.32218
343.85374,0.25503
342.36395,0.55031
340.87416,0.29148
339.38437,0.21308
337.89458,0.13476
336.40479,0.12046
334.91501,0.13247
333.42522,0.06750
331.93543,0.00260
330.44564,0.01258
328.95585,0.46533
327.46606,0.47547
325.97627,0.48567
324.48649,0.69271
322.99670,0.35547
321.50691,0.22490
320.01712,0.09440
318.52733,0.34289
317.03754,0.33240
315.54776,0.26296
314.05797,0.19360
312.56818,0.24564
311.07839,0.23546
309.58860,0.18764
308.09881,0.13989
306.60902,0.17257
305.11924,0.12006
303.62945,0.24635
302.13966,0.37271
300.64987,0.03841
299.16008,0.00260
