1778.52000,0.03572
1777.03021,0.02471
1775.54042,0.07359
1774.05063,0.01884
1772.56085,0.02398
1771.07106,0.14948
1769.58127,0.14779
1768.09148,0.15446
1766.60169,0.15358
1765.11190,0.19478
1763.62212,0.22333
1762.13233,0.23161
1760.64254,0.13116
1759.15275,0.20133
1757.66296,0.14304
1756.17317,0.06321
1754.68339,0.00000
1753.19360,0.04569
1751.70381,0.08764
1750.21402,0.10932
1748.72423,0.10563
1747.23444,0.10711
1745.74465,0.10867
1744.25487,0.10523
1742.76508,0.15278
1741.27529,0.14251
1739.78550,0.06232
1738.29571,0.02231
1736.80592,0.09501
1735.31614,0.16016
1733.82635,0.05295
1732.33656,0.06355
1730.84677,0.10350
1729.35698,0.13271
1727.86719,0.04111
1726.37740,0.06094
1724.88762,0.06114
1723.39783,0.12633
1721.90804,0.17633
1720.41825,0.13350
1718.92846,0.07804
1717.43867,0.01884
1715.94889,0.18688
1714.45910,0.14946
1712.96931,0.09432
1711.47952,0.16461
1709.98973,0.19363
1708.49994,0.13874
1707.01016,0.10938
1705.52037,0.08011
1704.03058,0.12664
1702.54079,0.12553
1701.05100,0.05770
1699.56121,0.06885
1698.07142,0.17617
1696.58164,0.10986
1695.09185,0.12253
1693.60206,0.17029
1692.11227,0.14941
1690.62248,0.29661
1689.13269,0.21099
1687.64291,0.14390
1686.15312,0.27672
1684.66333,0.17035
1683.17354,0.22760
1681.68375,0.20413
1680.19396,0.24437
1678.70417,0.18161
1677.21439,0.08839
1675.72460,0.10471
1674.23481,0.14974
1672.74502,0.17767
1671.25523,0.30496
1669.76544,0.20834
1668.27566,0.20344
1666.78587,0.18526
1665.29608,0.21998
1663.80629,0.27514
1662.31650,0.27503
1660.82671,0.29791
1659.33693,0.28015
1657.84714,0.23320
1656.35735,0.12525
1654.86756,0.03775
1653.37777,0.02287
1651.88798,0.05389
1650.39819,0.12572
1648.90841,0.23645
1647.41862,0.08191
1645.92883,0.08304
1644.43904,0.08425
1642.94925,0.16477
1641.45946,0.18938
1639.96968,0.25989
1638.47989,0.27130
1636.99010,0.38780
1635.50031,0.34911
1634.01052,0.27360
1632.52073,0.23698
1631.03094,0.09992
1629.54116,0.05965
1628.05137,0.01884
1626.56158,0.04037
1625.07179,0.10336
1623.58200,0.23769
1622.09221,0.27984
1620.60243,0.22154
1619.11264,0.20722
1617.62285,0.13827
1616.13306,0.18712
1614.64327,0.18896
1613.15348,0.23798
1611.66370,0.22345
1610.17391,0.17464
1608.68412,0.29645
1607.19433,0.30190
1605.70454,0.26670
1604.21475,0.23223
1602.72496,0.19784
1601.23518,0.30671
1599.74539,0.33230
1598.25560,0.41016
1596.76581,0.32520
1595.27602,0.27914
1593.78623,0.19944
1592.29645,0.09882
1590.80666,0.11219
1589.31687,0.17273
1587.82708,0.20409
1586.33729,0.22916
1584.84750,0.25178
1583.35771,0.40302
1581.86793,0.41308
1580.37814,0.39776
1578.88835,0.37999
1577.39856,0.25539
1575.90877,0.25560
1574.41898,0.19481
1572.92920,0.15128
1571.43941,0.20456
1569.94962,0.20256
1568.45983,0.20065
1566.97004,0.18927
1565.48025,0.10735
1563.99047,0.04778
1562.50068,0.01884
1561.01089,0.09550
1559.52110,0.13279
1558.03131,0.26562
1556.54152,0.15927
1555.05173,0.13382
1553.56195,0.12818
1552.07216,0.16016
1550.58237,0.24187
1549.09258,0.13275
1547.60279,0.08036
1546.11300,0.12859
1544.62322,0.21636
1543.13343,0.30357
1541.64364,0.27315
1540.15385,0.21449
1538.66406,0.15592
1537.17427,0.19002
1535.68448,0.15866
1534.19470,0.15729
1532.70491,0.11719
1531.21512,0.00208
1529.72533,0.07905
1528.23554,0.18856
1526.74575,0.26633
1525.25597,0.22519
1523.76618,0.23758
1522.27639,0.23861
1520.78660,0.16654
1519.29681,0.01884
1517.80702,0.11056
1516.31724,0.14573
1514.82745,0.06644
1513.33766,0.12596
1511.84787,0.18557
1510.35808,0.17271
1508.86829,0.14849
1507.37850,0.03271
1505.88872,0.01884
1504.39893,0.06212
1502.90914,0.02403
1501.41935,0.04457
1499.92956,0.12564
1498.43977,0.08017
1496.94999,0.14296
1495.46020,0.27201
1493.97041,0.32543
1492.48062,0.32292
1490.99083,0.34532
1489.50104,0.36144
1488.01125,0.35379
1486.52147,0.34621
1485.03168,0.42304
1483.54189,0.59158
1482.05210,0.55721
1480.56231,0.62729
1479.07252,0.56573
1477.58274,0.80333
1476.09295,0.83166
1474.60316,0.93643
1473.11337,0.99420
1471.62358,1.03805
1470.13379,1.04763
1468.64401,0.98539
1467.15422,0.92322
1465.66443,0.87419
1464.17464,0.82524
1462.68485,0.76715
1461.19506,0.67987
1459.70527,0.54686
1458.21549,0.54311
1456.72570,0.49426
1455.23591,0.46586
1453.74612,0.54699
1452.25633,0.45449
1450.76654,0.33980
1449.27676,0.18638
1447.78697,0.10113
1446.29718,0.08596
1444.80739,0.07119
1443.31760,0.05651
1441.82781,0.09313
1440.33802,0.16484
1438.84824,0.17045
1437.35845,0.11252
1435.86866,0.13612
1434.37887,0.11080
1432.88908,0.13011
1431.39929,0.08969
1429.90951,0.17344
1428.41972,0.27636
1426.92993,0.25720
1425.44014,0.08985
1423.95035,0.05430
1422.46056,0.01884
1420.97078,0.05197
1419.48099,0.28882
1417.99120,0.43984
1416.50141,0.39050
1415.01162,0.13380
1413.52183,0.06682
1412.03204,0.16218
1410.54226,0.20354
1409.05247,0.27425
1407.56268,0.31832
1406.07289,0.17666
1404.58310,0.22281
1403.09331,0.26904
1401.60353,0.28609
1400.11374,0.26631
1398.62395,0.31025
1397.13416,0.33709
1395.64437,0.42447
1394.15458,0.42220
1392.66479,0.50021
1391.17501,0.54456
1389.68522,0.42610
1388.19543,0.42672
1386.70564,0.48883
1385.21585,0.55103
1383.72606,0.55762
1382.23628,0.58467
1380.74649,0.63598
1379.25670,0.45893
1377.76691,0.45250
1376.27712,0.60015
1374.78733,0.62316
1373.29755,0.64180
1371.80776,0.76488
1370.31797,0.92559
1368.82818,0.99634
1367.33839,1.06718
1365.84860,1.09706
1364.35881,1.00994
1362.86903,1.01644
1361.37924,0.99375
1359.88945,1.08123
1358.39966,1.09562
1356.90987,1.13746
1355.42008,1.11702
1353.93030,1.07948
1352.44051,0.97839
1350.95072,0.87739
1349.46093,0.79174
1347.97114,0.75835
1346.48135,0.81032
1344.99156,0.60593
1343.50178,0.63262
1342.01199,0.51112
1340.52220,0.57424
1339.03241,0.47009
1337.54262,0.54674
1336.05283,0.53280
1334.56305,0.51894
1333.07326,0.54176
1331.58347,0.49276
1330.09368,0.46102
1328.60389,0.40009
1327.11410,0.32652
1325.62432,0.20022
1324.13453,0.25217
1322.64474,0.24439
1321.15495,0.28507
1319.66516,0.22655
1318.17537,0.16812
1316.68558,0.16641
1315.19580,0.15269
1313.70601,0.16578
1312.21622,0.21968
1310.72643,0.11267
1309.23664,0.14319
1307.74685,0.16998
1306.25707,0.18795
1304.76728,0.12932
1303.27749,0.07077
1301.78770,0.04063
1300.29791,0.01884
1298.80812,0.18385
1297.31834,0.19749
1295.82855,0.26594
1294.33876,0.29821
1292.84897,0.42155
1291.35918,0.41835
1289.86939,0.36433
1288.37960,0.31039
1286.88982,0.25208
1285.40003,0.29248
1283.91024,0.28970
1282.42045,0.28382
1280.93066,0.35057
1279.44087,0.37859
1277.95109,0.42896
1276.46130,0.32733
1274.97151,0.31932
1273.48172,0.31140
1271.99193,0.32902
1270.50214,0.45681
1269.01235,0.58659
1267.52257,0.65282
1266.03278,0.57277
1264.54299,0.57808
1263.05320,0.55357
1261.56341,0.49192
1260.07362,0.43035
1258.58384,0.39781
1257.09405,0.43281
1255.60426,0.57417
1254.11447,0.42925
1252.62468,0.45560
1251.13489,0.44003
1249.64511,0.47609
1248.15532,0.33724
1246.66553,0.29965
1245.17574,0.26214
1243.68595,0.21963
1242.19616,0.23829
1240.70637,0.34867
1239.21659,0.29623
1237.72680,0.25978
1236.23701,0.36341
1234.74722,0.39012
1233.25743,0.32052
1231.76764,0.25100
1230.27786,0.24488
1228.78807,0.23057
1227.29828,0.32643
1225.80849,0.33392
1224.31870,0.24223
1222.82891,0.17926
1221.33912,0.18955
1219.84934,0.19133
1218.35955,0.19320
1216.86976,0.31510
1215.37997,0.22519
1213.89018,0.26453
1212.40039,0.30842
1210.91061,0.29003
1209.42082,0.32517
1207.93103,0.23472
1206.44124,0.14436
1204.95145,0.12821
1203.46166,0.14905
1201.97188,0.07199
1200.48209,0.13181
1198.99230,0.19491
1197.50251,0.22754
1196.01272,0.22272
1194.52293,0.20143
1193.03314,0.18023
1191.54336,0.30165
1190.05357,0.36015
1188.56378,0.28702
1187.07399,0.08098
1185.58420,0.01884
1184.09441,0.11843
1182.60463,0.18437
1181.11484,0.25040
1179.62505,0.28025
1178.13526,0.22745
1176.64547,0.34019
1175.15568,0.21883
1173.66589,0.18411
1172.17611,0.34100
1170.68632,0.29276
1169.19653,0.24461
1167.70674,0.43293
1166.21695,0.49153
1164.72716,0.28168
1163.23738,0.21063
1161.74759,0.21539
1160.25780,0.34242
1158.76801,0.31935
1157.27822,0.29636
1155.78843,0.36509
1154.29865,0.32255
1152.80886,0.48563
1151.31907,0.56988
1149.82928,0.62813
1148.33949,0.58210
1146.84970,0.53362
1145.35991,0.48521
1143.87013,0.45408
1142.38034,0.55983
1140.89055,0.52314
1139.40076,0.40762
1137.91097,0.67335
1136.42118,0.75017
1134.93140,0.73831
1133.44161,0.72653
1131.95182,0.78706
1130.46203,0.85276
1128.97224,0.83519
1127.48245,1.01624
1125.99266,1.03765
1124.50288,1.01651
1123.01309,1.01455
1121.52330,1.01267
1120.03351,0.98797
1118.54372,0.97544
1117.05393,0.85036
1115.56415,0.84245
1114.07436,0.81936
1112.58457,0.84312
1111.09478,0.86696
1109.60499,0.94212
1108.11520,0.89518
1106.62542,0.92086
1105.13563,0.95618
1103.64584,0.84713
1102.15605,0.89852
1100.66626,0.84945
1099.17647,0.80047
1097.68668,0.64022
1096.19690,0.63595
1094.70711,0.68649
1093.21732,0.77338
1091.72753,0.91826
1090.23774,0.93756
1088.74795,0.95693
1087.25817,1.06898
1085.76838,0.99466
1084.27859,1.01970
1082.78880,0.99646
1081.29901,1.12157
1079.80922,1.01577
1078.31943,1.08855
1076.82965,1.16142
1075.33986,1.09087
1073.85007,1.15786
1072.36028,1.39674
1070.87049,1.35317
1069.38070,1.28487
1067.89092,1.26438
1066.40113,1.24397
1064.91134,1.23319
1063.42155,1.24922
1061.93176,1.18771
1060.44197,1.09064
1058.95219,1.05347
1057.46240,1.04375
1055.97261,1.03411
1054.48282,0.95901
1052.99303,0.97945
1051.50324,0.94206
1050.01345,0.93403
1048.52367,0.73391
1047.03388,0.67451
1045.54409,0.61519
1044.05430,0.38223
1042.56451,0.45671
1041.07472,0.36773
1039.58494,0.44492
1038.09515,0.51647
1036.60536,0.49456
1035.11557,0.47273
1033.62578,0.31991
1032.13599,0.25880
1030.64620,0.28113
1029.15642,0.38372
1027.66663,0.36041
1026.17684,0.33718
1024.68705,0.45657
1023.19726,0.76313
1021.70747,0.99086
1020.21769,1.02715
1018.72790,1.25823
1017.23811,1.35896
1015.74832,1.45976
1014.25853,1.57592
1012.76874,1.70680
1011.27896,1.80468
1009.78917,2.00000
1008.29938,1.89505
1006.80959,1.91109
1005.31980,1.92722
1003.83001,1.83907
1002.34022,1.81782
1000.85044,1.73874
999.36065,1.60694
997.87086,1.56367
996.38107,1.52048
994.89128,1.48056
993.40149,1.44963
991.91171,1.49960
990.42192,1.16849
988.93213,1.15309
987.44234,1.12727
985.95255,1.10153
984.46276,1.10420
982.97297,1.04331
981.48319,1.00478
979.99340,0.90334
978.50361,0.87230
977.01382,0.84134
975.52403,0.81269
974.03424,0.81594
972.54446,0.56920
971.05467,0.39508
969.56488,0.37314
968.07509,0.33154
966.58530,0.29004
965.09551,0.23780
963.60573,0.23464
962.11594,0.17302
960.62615,0.28266
959.13636,0.22057
957.64657,0.15857
956.15678,0.13610
954.66699,0.11436
953.17721,0.22760
951.68742,0.21557
950.19763,0.20012
948.70784,0.18476
947.21805,0.15580
945.72826,0.05756
944.23848,0.11085
942.74869,0.31186
941.25890,0.42641
939.76911,0.38037
938.27932,0.33441
936.78953,0.36967
935.29974,0.41965
933.80996,0.55880
932.32017,0.61213
930.83038,0.63436
929.34059,0.65668
927.85080,0.75226
926.36101,0.85238
924.87123,0.89849
923.38144,0.81742
921.89165,0.85320
920.40186,0.88906
918.91207,0.94824
917.42228,0.99732
915.93250,0.99239
914.44271,0.81447
912.95292,0.79889
911.46313,0.78340
909.97334,0.60636
908.48355,0.50641
906.99376,0.30536
905.50398,0.08021
904.01419,0.11986
902.52440,0.15960
901.03461,0.30378
899.54482,0.23424
898.05503,0.32768
896.56525,0.41229
895.07546,0.41777
893.58567,0.42333
892.09588,0.45729
890.60609,0.45697
889.11630,0.54774
887.62651,0.52659
886.13673,0.56439
884.64694,0.60227
883.15715,0.73727
881.66736,0.76355
880.17757,0.71991
878.68778,0.86503
877.19800,1.01024
875.70821,0.94840
874.21842,1.00182
872.72863,1.10815
871.23884,1.33037
869.74905,1.42318
868.25927,1.51607
866.76948,1.50946
865.27969,1.57802
863.78990,1.56585
862.30011,1.50604
860.81032,1.50518
859.32053,1.50440
857.83075,1.57656
856.34096,1.62081
854.85117,1.40616
853.36138,1.27558
851.87159,1.24881
850.38180,1.22213
848.89202,1.08417
847.40223,1.11747
845.91244,1.02104
844.42265,0.93965
842.93286,0.85834
841.44307,0.70553
839.95329,0.69916
838.46350,0.78133
836.97371,0.79676
835.48392,0.72860
833.99413,0.66052
832.50434,0.40004
831.01455,0.33245
829.52477,0.39666
828.03498,0.38651
826.54519,0.40666
825.05540,0.42691
823.56561,0.41191
822.07582,0.32447
820.58604,0.26574
819.09625,0.32640
817.60646,0.38715
816.11667,0.21795
814.62688,0.12965
813.13709,0.21006
811.64730,0.01884
810.15752,0.04595
808.66773,0.07314
807.17794,0.17964
805.68815,0.29195
804.19836,0.26435
802.70857,0.24192
801.21879,0.21958
799.72900,0.35132
798.23921,0.24134
796.74942,0.13525
795.25963,0.20679
793.76984,0.27841
792.28006,0.27503
790.79027,0.18709
789.30048,0.19215
787.81069,0.07957
786.32090,0.04916
784.83111,0.01884
783.34132,0.08694
781.85154,0.16276
780.36175,0.17058
778.87196,0.18485
777.38217,0.19920
775.89238,0.13345
774.40259,0.12125
772.91281,0.16703
771.42302,0.17599
769.93323,0.18503
768.44344,0.17507
766.95365,0.09837
765.46386,0.05103
763.97407,0.08714
762.48429,0.15546
760.99450,0.22387
759.50471,0.31368
758.01492,0.22731
756.52513,0.05575
755.03534,0.09841
753.54556,0.14114
752.05577,0.01884
750.56598,0.02885
749.07619,0.18529
747.58640,0.18624
746.09661,0.18728
744.60683,0.20271
743.11704,0.24750
741.62725,0.25038
740.13746,0.25557
738.64767,0.26084
737.15788,0.19651
735.66809,0.04319
734.17831,0.16230
732.68852,0.22581
731.19873,0.28941
729.70894,0.28596
728.21915,0.21005
726.72936,0.23349
725.23958,0.13675
723.74979,0.10277
722.26000,0.06887
720.77021,0.01884
719.28042,0.11679
717.79063,0.19700
716.30084,0.20921
714.81106,0.22151
713.32127,0.23643
711.83148,0.41116
710.34169,0.36390
708.85190,0.28871
707.36211,0.21361
705.87233,0.16851
704.38254,0.17375
702.89275,0.15236
701.40296,0.20614
699.91317,0.26000
698.42338,0.24395
696.93360,0.19234
695.44381,0.40618
693.95402,0.41074
692.46423,0.41538
690.97444,0.33866
689.48465,0.33712
687.99486,0.39674
686.50508,0.41158
685.01529,0.42651
683.52550,0.43485
682.03571,0.38408
680.54592,0.43776
679.05613,0.39735
677.56635,0.35702
676.07656,0.40459
674.58677,0.41152
673.09698,0.28935
671.60719,0.24458
670.11740,0.19990
668.62761,0.25489
667.13783,0.14706
665.64804,0.13699
664.15825,0.12701
662.66846,0.17024
661.17867,0.07866
659.68888,0.13606
658.19910,0.11336
656.70931,0.09076
655.21952,0.06887
653.72973,0.17178
652.23994,0.21815
650.75015,0.23946
649.26037,0.26086
647.77058,0.08540
646.28079,0.01884
644.79100,0.10506
643.30121,0.08956
641.81142,0.07414
640.32163,0.07789
638.83185,0.09573
637.34206,0.01884
635.85227,0.03050
634.36248,0.04224
632.87269,0.06648
631.38290,0.02272
629.89312,0.06240
628.40333,0.06207
626.91354,0.06183
625.42375,0.04067
623.93396,0.07877
622.44417,0.11696
620.95438,0.15524
619.46460,0.19741
617.97481,0.23649
616.48502,0.28520
614.99523,0.22167
613.50544,0.15823
612.01565,0.01884
610.52587,0.17658
609.03608,0.14732
607.54629,0.19259
606.05650,0.23795
604.56671,0.18540
603.07692,0.21184
601.58714,0.21418
600.09735,0.21661
598.60756,0.19812
597.11777,0.15426
595.62798,0.34784
594.13819,0.29046
592.64840,0.23318
591.15862,0.12411
589.66883,0.16403
588.17904,0.25558
586.68925,0.24985
585.19946,0.24421
583.70967,0.27174
582.21989,0.08363
580.73010,0.16383
579.24031,0.24411
577.75052,0.38397
576.26073,0.39474
574.77094,0.32859
573.28115,0.32139
571.79137,0.31428
570.30158,0.35529
568.81179,0.50202
567.32200,0.54574
565.83221,0.58955
564.34242,0.66208
562.85264,0.62206
561.36285,0.72721
559.87306,0.79522
558.38327,0.86331
556.89348,0.90253
555.40369,1.08056
553.91391,1.16068
552.42412,1.24088
550.93433,1.34598
549.44454,1.36144
547.95475,1.35599
546.46496,1.26917
544.97517,1.18243
543.48539,1.25105
541.99560,1.17211
540.50581,1.23231
539.01602,1.29258
537.52623,1.35835
536.03644,1.41020
534.54666,1.28778
533.05687,1.29144
531.56708,1.29518
530.07729,1.25065
528.58750,1.13875
527.09771,1.18092
525.60792,1.22318
524.11814,1.11726
522.62835,1.00124
521.13856,0.98775
519.64877,0.93140
518.15898,0.87512
516.66919,0.72381
515.17941,0.79020
513.68962,0.79558
512.19983,0.80105
510.71004,1.01342
509.22025,0.96624
507.73046,0.91279
506.24068,0.91605
504.75089,0.91939
503.26110,0.85474
501.77131,0.81498
500.28152,0.86439
498.79173,0.91389
497.30194,0.82284
495.81216,0.88587
494.32237,0.92926
492.83258,0.97273
491.34279,0.81202
489.85300,0.60748
488.36321,0.70211
486.87343,0.67560
485.38364,0.64918
483.89385,0.44817
482.40406,0.39041
480.91427,0.40655
479.42448,0.42278
477.93469,0.40600
476.44491,0.20032
474.95512,0.17830
473.46533,0.15636
471.97554,0.18383
470.48575,0.09429
468.99596,0.01884
467.50618,0.04946
466.01639,0.08016
464.52660,0.25539
463.03681,0.26590
461.54702,0.31404
460.05723,0.36226
458.56745,0.42074
457.07766,0.36541
455.58787,0.36107
454.09808,0.35681
452.60829,0.46972
451.11850,0.43190
449.62871,0.50584
448.13893,0.57987
446.64914,0.79811
445.15935,0.86308
443.66956,0.88740
442.17977,0.89081
440.68998,0.89431
439.20020,0.85016
437.71041,0.74056
436.22062,0.80190
434.73083,0.86332
433.24104,1.01168
431.75125,1.12322
430.26146,1.02453
428.77168,0.92593
427.28189,0.90855
425.79210,1.16742
424.30231,1.04362
422.81252,0.91990
421.32273,0.82140
419.83295,0.88971
418.34316,0.98832
416.85337,1.08702
415.36358,0.94113
413.87379,1.00850
412.38400,1.05750
410.89422,1.10658
409.40443,1.04375
407.91464,0.68256
406.42485,0.51555
404.93506,0.53919
403.44527,0.56292
401.95548,0.54506
400.46570,0.60809
398.97591,0.54426
397.48612,0.48051
395.99633,0.11427
394.50654,0.15147
393.01675,0.25779
391.52697,0.36420
390.03718,0.49137
388.54739,0.41500
387.05760,0.45930
385.56781,0.50368
384.07802,0.50010
382.58824,0.31653
381.09845,0.24249
379.60866,0.16853
378.11887,0.26073
376.62908,0.20222
375.13929,0.14219
373.64950,0.08225
372.15972,0.14743
370.66993,0.18725
369.18014,0.19105
367.69035,0.19493
366.20056,0.24504
364.71077,0.43077
363.22099,0.40118
361.73120,0.37168
360.24141,0.40048
358.75162,0.25438
357.26183,0.27444
355.77204,0.29459
354.28225,0.37464
352.79247,0.35041
351.30268,0.27823
349.81289,0.20612
348.32310,0.26869
346.83331,0.37224
345.34352,0.34098
343.85374,0.30980
342.36395,0.33533
340.87416,0.47167
339.38437,0.43406
337.89458,0.39653
336.40479,0.18760
334.91501,0.01884
333.42522,0.04271
331.93543,0.06666
330.44564,0.13460
328.95585,0.45398
327.46606,0.45591
325.97627,0.45793
324.48649,0.42758
322.99670,0.28659
321.50691,0.15901
320.01712,0.03153
318.52733,0.21012
317.03754,0.47789
315.54776,0.45685
314.05797,0.43589
312.56818,0.56710
311.07839,0.69585
309.58860,0.49951
308.09881,0.30326
306.60902,0.32790
305.11924,0.17191
303.62945,0.20817
302.13966,0.05443
300.64987,0.01884
299.16008,0.01884
