1778.52000,0.19265
1777.03021,0.00000
1775.54042,0.19001
1774.05063,0.12754
1772.56085,0.08808
1771.07106,0.02571
1769.58127,0.19295
1768.09148,0.10771
1766.60169,0.11435
1765.11190,0.17461
1763.62212,0.04360
1762.13233,0.21873
1760.64254,0.44748
1759.15275,0.40844
1757.66296,0.60668
1756.17317,0.20807
1754.68339,0.30692
1753.19360,0.39816
1751.70381,0.16040
1750.21402,0.09869
1748.72423,0.04468
1747.23444,0.02133
1745.74465,0.43436
1744.25487,0.44187
1742.76508,0.57186
1741.27529,0.56416
1739.78550,0.42642
1738.29571,0.42646
1736.80592,0.43421
1735.31614,0.36548
1733.82635,0.23558
1732.33656,0.35060
1730.84677,0.41210
1729.35698,0.43538
1727.86719,0.45107
1726.37740,0.00000
1724.88762,0.32418
1723.39783,0.18162
1721.90804,0.43703
1720.41825,0.40169
1718.92846,0.40466
1717.43867,0.36942
1715.94889,0.32658
1714.45910,0.45978
1712.96931,0.43233
1711.47952,0.34372
1709.98973,0.33932
1708.49994,0.39619
1707.01016,0.38806
1705.52037,0.37998
1704.03058,0.42169
1702.54079,0.26449
1701.05100,0.45168
1699.56121,0.17979
1698.07142,0.51248
1696.58164,0.46260
1695.09185,0.30563
1693.60206,0.40888
1692.11227,0.48158
1690.62248,0.29414
1689.13269,0.53529
1687.64291,0.30968
1686.15312,0.47440
1684.66333,0.60855
1683.17354,0.45961
1681.68375,0.30307
1680.19396,0.37615
1678.70417,0.35744
1677.21439,0.28522
1675.72460,0.37374
1674.23481,0.19447
1672.74502,0.08413
1671.25523,0.44063
1669.76544,0.60586
1668.27566,0.35792
1666.78587,0.50029
1665.29608,0.32131
1663.80629,0.49439
1662.31650,0.34612
1660.82671,0.54990
1659.33693,0.27928
1657.84714,0.46020
1656.35735,0.26620
1654.86756,0.42426
1653.37777,0.02374
1651.88798,0.39616
1650.39819,0.30183
1648.90841,0.40650
1647.41862,0.25871
1645.92883,0.30992
1644.43904,0.36117
1642.94925,0.24412
1641.45946,0.33373
1639.96968,0.21678
1638.47989,0.33709
1636.99010,0.27380
1635.50031,0.27177
1634.01052,0.54528
1632.52073,0.16073
1631.03094,0.20476
1629.54116,0.36362
1628.05137,0.27765
1626.56158,0.16112
1625.07179,0.24360
1623.58200,0.23430
1622.09221,0.32453
1620.60243,0.20819
1619.11264,0.53574
1617.62285,0.17462
1616.13306,0.44869
1614.64327,0.49324
1613.15348,0.59906
1611.66370,0.27639
1610.17391,0.06855
1608.68412,0.65661
1607.19433,0.35704
1605.70454,0.35596
1604.21475,0.28223
1602.72496,0.20855
1601.23518,0.06222
1599.74539,0.21437
1598.25560,0.33597
1596.76581,0.19743
1595.27602,0.22729
1593.78623,0.11946
1592.29645,0.21828
1590.80666,0.32481
1589.31687,0.35486
1587.82708,0.20130
1586.33729,0.32327
1584.84750,0.14686
1583.35771,0.36075
1581.86793,0.21504
1580.37814,0.62799
1578.88835,0.66602
1577.39856,0.36740
1575.90877,0.55092
1574.41898,0.09935
1572.92920,0.13758
1571.43941,0.25237
1569.94962,0.12616
1568.45983,0.00000
1566.97004,0.13556
1565.48025,0.17168
1563.99047,0.55986
1562.50068,0.41243
1561.01089,0.37982
1559.52110,0.24778
1558.03131,0.42954
1556.54152,0.13690
1555.05173,0.26518
1553.56195,0.09507
1552.07216,0.18519
1550.58237,0.17587
1549.09258,0.19721
1547.60279,0.36400
1546.11300,0.34717
1544.62322,0.26917
1543.13343,0.16826
1541.64364,0.35819
1540.15385,0.19617
1538.66406,0.03418
1537.17427,0.22425
1535.68448,0.42202
1534.19470,0.00000
1532.70491,0.22529
1531.21512,0.38942
1529.72533,0.63776
1528.23554,0.16684
1526.74575,0.21631
1525.25597,0.38828
1523.76618,0.14707
1522.27639,0.17373
1520.78660,0.00148
1519.29681,0.21955
1517.80702,0.33053
1516.31724,0.34973
1514.82745,0.47612
1513.33766,0.42272
1511.84787,0.36936
1510.35808,0.13623
1508.86829,0.34697
1507.37850,0.20576
1505.88872,0.11816
1504.39893,0.00000
1502.90914,0.21722
1501.41935,0.04422
1499.92956,0.33041
1498.43977,0.24934
1496.94999,0.16831
1495.46020,0.36281
1493.97041,0.54205
1492.48062,0.45352
1490.99083,0.36503
1489.50104,0.40667
1488.01125,0.43306
1486.52147,0.45949
1485.03168,0.67728
1483.54189,0.58903
1482.05210,0.64622
1480.56231,0.57336
1479.07252,0.80665
1477.58274,0.97876
1476.09295,0.59230
1474.60316,0.90226
1473.11337,1.25816
1471.62358,1.36925
1470.13379,1.15898
1468.64401,0.93346
1467.15422,1.02938
1465.66443,1.05265
1464.17464,1.07597
1462.68485,0.85064
1461.19506,0.91614
1459.70527,0.74447
1458.21549,0.43510
1456.72570,0.20995
1455.23591,0.43635
1453.74612,0.80053
1452.25633,0.64439
1450.76654,0.45005
1449.27676,0.40880
1447.78697,0.22985
1446.29718,0.68610
1444.80739,0.51107
1443.31760,0.33609
1441.82781,0.37160
1440.33802,0.21585
1438.84824,0.19023
1437.35845,0.24119
1435.86866,0.29984
1434.37887,0.41976
1432.88908,0.31017
1431.39929,0.36896
1429.90951,0.27476
1428.41972,0.42548
1426.92993,0.49207
1425.44014,0.39801
1423.95035,0.36522
1422.46056,0.33247
1420.97078,0.40690
1419.48099,0.68034
1417.99120,0.47939
1416.50141,0.26318
1415.01162,0.40667
1413.52183,0.30533
1412.03204,0.28057
1410.54226,0.58490
1409.05247,0.60615
1407.56268,0.08413
1406.07289,0.58757
1404.58310,0.55539
1403.09331,0.52326
1401.60353,0.55239
1400.11374,0.69636
1398.62395,0.68733
1397.13416,0.70130
1395.64437,0.47045
1394.15458,0.50747
1392.66479,0.90420
1391.17501,0.45922
1389.68522,0.61117
1388.19543,0.61778
1386.70564,0.63974
1385.21585,0.66174
1383.72606,0.72971
1382.23628,0.92015
1380.74649,0.75099
1379.25670,0.91092
1377.76691,0.72655
1376.27712,0.79475
1374.78733,0.99309
1373.29755,0.75530
1371.80776,0.67825
1370.31797,1.12925
1368.82818,1.08291
1367.33839,1.03661
1365.84860,1.22758
1364.35881,1.13546
1362.86903,0.90565
1361.37924,1.44877
1359.88945,0.94357
1358.39966,1.15008
1356.90987,1.11942
1355.42008,0.84393
1353.93030,1.03527
1352.44051,0.98562
1350.95072,0.93602
1349.46093,0.91325
1347.97114,0.89052
1346.48135,1.15098
1344.99156,0.82990
1343.50178,0.76906
1342.01199,0.97609
1340.52220,0.83882
1339.03241,1.04595
1337.54262,0.68685
1336.05283,0.59945
1334.56305,0.51211
1333.07326,0.81126
1331.58347,0.52887
1330.09368,0.49141
1328.60389,0.75243
1327.11410,0.68446
1325.62432,0.28748
1324.13453,0.45682
1322.64474,0.49612
1321.15495,0.35180
1319.66516,0.37589
1318.17537,0.40002
1316.68558,0.37064
1315.19580,0.37192
1313.70601,0.51098
1312.21622,0.40521
1310.72643,0.46784
1309.23664,0.46931
1307.74685,0.45551
1306.25707,0.54124
1304.76728,0.37067
1303.27749,0.20014
1301.78770,0.11001
1300.29791,0.46377
1298.80812,0.64922
1297.31834,0.45210
1295.82855,0.40042
1294.33876,0.22635
1292.84897,0.55739
1291.35918,0.31454
1289.86939,0.44288
1288.37960,0.57127
1286.88982,0.55049
1285.40003,0.30783
1283.91024,0.45550
1282.42045,0.58025
1280.93066,0.46782
1279.44087,0.45493
1277.95109,0.38086
1276.46130,0.29154
1274.97151,0.30939
1273.48172,0.32730
1271.99193,0.55951
1270.50214,0.69995
1269.01235,0.50373
1267.52257,0.67487
1266.03278,0.73127
1264.54299,0.50458
1263.05320,0.64526
1261.56341,0.61380
1260.07362,0.58239
1258.58384,0.50894
1257.09405,0.58858
1255.60426,0.53818
1254.11447,0.38835
1252.62468,0.79718
1251.13489,0.42553
1249.64511,0.18401
1248.15532,0.47055
1246.66553,0.62705
1245.17574,0.78359
1243.68595,0.71827
1242.19616,0.33925
1240.70637,0.58011
1239.21659,0.60675
1237.72680,0.48040
1236.23701,0.54540
1234.74722,0.54158
1233.25743,0.52250
1231.76764,0.50347
1230.27786,0.63753
1228.78807,0.61859
1227.29828,0.30126
1225.80849,0.35129
1224.31870,0.26362
1222.82891,0.00000
1221.33912,0.13079
1219.84934,0.26163
1218.35955,0.39252
1216.86976,0.24797
1215.37997,0.45547
1213.89018,0.28041
1212.40039,0.22782
1210.91061,0.24416
1209.42082,0.28350
1207.93103,0.22341
1206.44124,0.16336
1204.95145,0.01919
1203.46166,0.05873
1201.97188,0.16717
1200.48209,0.05375
1198.99230,0.42248
1197.50251,0.00305
1196.01272,0.01987
1194.52293,0.17064
1193.03314,0.32146
1191.54336,0.17771
1190.05357,0.21002
1188.56378,0.23472
1187.07399,0.19825
1185.58420,0.00878
1184.09441,0.15606
1182.60463,0.16564
1181.11484,0.17527
1179.62505,0.06252
1178.13526,0.11050
1176.64547,0.09732
1175.15568,0.13010
1173.66589,0.03284
1172.17611,0.24172
1170.68632,0.22872
1169.19653,0.21578
1167.70674,0.17992
1166.21695,0.33542
1164.72716,0.22314
1163.23738,0.41700
1161.74759,0.05993
1160.25780,0.14674
1158.76801,0.16474
1157.27822,0.18278
1155.78843,0.54523
1154.29865,0.70111
1152.80886,0.50503
1151.31907,0.43908
1149.82928,0.39615
1148.33949,0.47569
1146.84970,0.56293
1145.35991,0.65023
1143.87013,0.25547
1142.38034,0.47295
1140.89055,0.19307
1139.40076,0.48717
1137.91097,0.71243
1136.42118,0.78471
1134.93140,0.68102
1133.44161,0.57738
1131.95182,0.90998
1130.46203,0.38555
1128.97224,1.04730
1127.48245,1.04333
1125.99266,0.88636
1124.50288,0.66057
1123.01309,0.78684
1121.52330,0.91315
1120.03351,0.87115
1118.54372,0.43129
1117.05393,0.58070
1115.56415,1.09747
1114.07436,0.59652
1112.58457,0.76521
1111.09478,0.93394
1109.60499,0.90758
1108.11520,0.81240
1106.62542,0.83971
1105.13563,0.92828
1103.64584,0.71846
1102.15605,0.68469
1100.66626,0.60505
1099.17647,0.52546
1097.68668,0.62192
1096.19690,0.55007
1094.70711,0.52419
1093.21732,0.46774
1091.72753,0.90875
1090.23774,0.86770
1088.74795,0.82671
1087.25817,0.94646
1085.76838,0.91321
1084.27859,0.64278
1082.78880,1.09937
1081.29901,0.96678
1079.80922,0.80363
1078.31943,0.85480
1076.82965,0.90600
1075.33986,0.81187
1073.85007,1.21518
1072.36028,1.09052
1070.87049,1.31028
1069.38070,1.23163
1067.89092,1.14156
1066.40113,1.05153
1064.91134,0.86590
1063.42155,1.17006
1061.93176,1.08400
1060.44197,1.18164
1058.95219,0.97324
1057.46240,0.84141
1055.97261,0.70962
1054.48282,0.90694
1052.99303,0.74464
1051.50324,0.61300
1050.01345,0.79515
1048.52367,0.94674
1047.03388,0.68132
1045.54409,0.41595
1044.05430,0.58299
1042.56451,0.48990
1041.07472,0.48103
1039.58494,0.25028
1038.09515,0.29507
1036.60536,0.30164
1035.11557,0.30826
1033.62578,0.38381
1032.13599,0.48235
1030.64620,0.39728
1029.15642,0.29696
1027.66663,0.16991
1026.17684,0.04289
1024.68705,0.32533
1023.19726,0.68434
1021.70747,0.56129
1020.21769,0.50717
1018.72790,0.85102
1017.23811,0.95769
1015.74832,1.06440
1014.25853,1.07935
1012.76874,1.41573
1011.27896,1.40015
1009.78917,1.62184
1008.29938,1.41505
1006.80959,1.49909
1005.31980,1.58318
1003.83001,1.49897
1002.34022,1.79743
1000.85044,1.70565
999.36065,1.31549
997.87086,1.24677
996.38107,1.17810
994.89128,1.41557
993.40149,1.41587
991.91171,1.34734
990.42192,1.36303
988.93213,1.04972
987.44234,0.98899
985.95255,0.92830
984.46276,1.08958
982.97297,0.89125
981.48319,0.99905
979.99340,0.83142
978.50361,0.73271
977.01382,0.63405
975.52403,0.56604
974.03424,0.77357
972.54446,0.49139
971.05467,0.62248
969.56488,0.24092
968.07509,0.28410
966.58530,0.32734
965.09551,0.28262
963.60573,0.42161
962.11594,0.53768
960.62615,0.30945
959.13636,0.16926
957.64657,0.02913
956.15678,0.00000
954.66699,0.17678
953.17721,0.10874
951.68742,0.15553
950.19763,0.19854
948.70784,0.24160
947.21805,0.10488
945.72826,0.26664
944.23848,0.29071
942.74869,0.52145
941.25890,0.44613
939.76911,0.29816
938.27932,0.15024
936.78953,0.32760
935.29974,0.48204
933.80996,0.59062
932.32017,0.57681
930.83038,0.78113
929.34059,0.98551
927.85080,0.65044
926.36101,0.99648
924.87123,0.88342
923.38144,0.97703
921.89165,0.85641
920.40186,0.73584
918.91207,0.92142
917.42228,0.90808
915.93250,1.13966
914.44271,0.90450
912.95292,0.81478
911.46313,0.72511
909.97334,0.86505
908.48355,0.72191
906.99376,0.46402
905.50398,0.45106
904.01419,0.43815
902.52440,0.42528
901.03461,0.31299
899.54482,0.33848
898.05503,0.55532
896.56525,0.38960
895.07546,0.63333
893.58567,0.87710
892.09588,0.56612
890.60609,0.43120
889.11630,0.47998
887.62651,0.89612
886.13673,0.88377
884.64694,0.87148
883.15715,0.75209
881.66736,0.77050
880.17757,0.65887
878.68778,0.97963
877.19800,1.30045
875.70821,1.43384
874.21842,1.10812
872.72863,1.51708
871.23884,1.50521
869.74905,1.48956
868.25927,1.47396
866.76948,1.60762
865.27969,1.43524
863.78990,1.74501
862.30011,1.51916
860.81032,1.66832
859.32053,1.81752
857.83075,1.54590
856.34096,1.86355
854.85117,1.72976
853.36138,1.35115
851.87159,1.33607
850.38180,1.32104
848.89202,1.18744
847.40223,1.41355
845.91244,1.15761
844.42265,0.97058
842.93286,0.78361
841.44307,0.52781
839.95329,0.73885
838.46350,0.75098
836.97371,0.94681
835.48392,0.71033
833.99413,0.47391
832.50434,0.54744
831.01455,0.47563
829.52477,0.28908
828.03498,0.49285
826.54519,0.52831
825.05540,0.56383
823.56561,0.28564
822.07582,0.45133
820.58604,0.31864
819.09625,0.27781
817.60646,0.23704
816.11667,0.22692
814.62688,0.22450
813.13709,0.33691
811.64730,0.18154
810.15752,0.17544
808.66773,0.16938
807.17794,0.19781
805.68815,0.47116
804.19836,0.28542
802.70857,0.24129
801.21879,0.19721
799.72900,0.38657
798.23921,0.23163
796.74942,0.13795
795.25963,0.15145
793.76984,0.16500
792.28006,0.37756
790.79027,0.36825
789.30048,0.05289
787.81069,0.21202
786.32090,0.15311
784.83111,0.09424
783.34132,0.23056
781.85154,0.19858
780.36175,0.28907
778.87196,0.20744
777.38217,0.12586
775.89238,0.15528
774.40259,0.15414
772.91281,0.00000
771.42302,0.13087
769.93323,0.26179
768.44344,0.22441
766.95365,0.22533
765.46386,0.47117
763.97407,0.04366
762.48429,0.10595
760.99450,0.16828
759.50471,0.30718
758.01492,0.17065
756.52513,0.49331
755.03534,0.36069
753.54556,0.22813
752.05577,0.28309
750.56598,0.46819
749.07619,0.32429
747.58640,0.26078
746.09661,0.19732
744.60683,0.00000
743.11704,0.48228
741.62725,0.28354
740.13746,0.16138
738.64767,0.03926
737.15788,0.16972
735.66809,0.46092
734.17831,0.33895
732.68852,0.34328
731.19873,0.34767
729.70894,0.12636
728.21915,0.21118
726.72936,0.39554
725.23958,0.29680
723.74979,0.14838
722.26000,0.00000
720.77021,0.18249
719.28042,0.43390
717.79063,0.27978
716.30084,0.33998
714.81106,0.40022
713.32127,0.16972
711.83148,0.16884
710.34169,0.25983
708.85190,0.23609
707.36211,0.21239
705.87233,0.56371
704.38254,0.36410
702.89275,0.37881
701.40296,0.45861
699.91317,0.53845
698.42338,0.46913
696.93360,0.37689
695.44381,0.26175
693.95402,0.33030
692.46423,0.39891
690.97444,0.51347
689.48465,0.38322
687.99486,0.33718
686.50508,0.28353
685.01529,0.22994
683.52550,0.66614
682.03571,0.52846
680.54592,0.58214
679.05613,0.63587
677.56635,0.68965
676.07656,0.69755
674.58677,0.22341
673.09698,0.21611
671.60719,0.14763
670.11740,0.07920
668.62761,0.39344
667.13783,0.24859
665.64804,0.28361
664.15825,0.31868
662.66846,0.29640
661.17867,0.27418
659.68888,0.35912
658.19910,0.24899
656.70931,0.13891
655.21952,0.27756
653.72973,0.13314
652.23994,0.17241
650.75015,0.22321
649.26037,0.27406
647.77058,0.03799
646.28079,0.17693
644.79100,0.22410
643.30121,0.25600
641.81142,0.28796
640.32163,0.09804
638.83185,0.00000
637.34206,0.02780
635.85227,0.15895
634.36248,0.29014
632.87269,0.15739
631.38290,0.23128
629.89312,0.25167
628.40333,0.28740
626.91354,0.32318
625.42375,0.01465
623.93396,0.01227
622.44417,0.18976
620.95438,0.36730
619.46460,0.38036
617.97481,0.27868
616.48502,0.54436
614.99523,0.40069
613.50544,0.25707
612.01565,0.21680
610.52587,0.29902
609.03608,0.23589
607.54629,0.27228
606.05650,0.30872
604.56671,0.47531
603.07692,0.22871
601.58714,0.29973
600.09735,0.37080
598.60756,0.48400
597.11777,0.28351
595.62798,0.58047
594.13819,0.42215
592.64840,0.26389
591.15862,0.17071
589.66883,0.25359
588.17904,0.27530
586.68925,0.44245
585.19946,0.60965
583.70967,0.66976
582.21989,0.30139
580.73010,0.35012
579.24031,0.39889
577.75052,0.45154
576.26073,0.46597
574.77094,0.63350
573.28115,0.56386
571.79137,0.49426
570.30158,0.97567
568.81179,0.73781
567.32200,0.75253
565.83221,0.76730
564.34242,1.08821
562.85264,1.11072
561.36285,1.08737
559.87306,1.37398
558.38327,1.66064
556.89348,1.60682
555.40369,1.30052
553.91391,1.58349
552.42412,1.86652
550.93433,1.68280
549.44454,1.96591
547.95475,1.64454
546.46496,1.65227
544.97517,1.66005
543.48539,1.63726
541.99560,1.79819
540.50581,1.82140
539.01602,1.84467
537.52623,1.68434
536.03644,1.62353
534.54666,1.93773
533.05687,1.96884
531.56708,2.00000
530.07729,1.37311
528.58750,1.38140
527.09771,1.45862
525.60792,1.53588
524.11814,1.13110
522.62835,0.97888
521.13856,1.19403
519.64877,1.20644
518.15898,1.21889
516.66919,1.04391
515.17941,1.27455
513.68962,1.14941
512.19983,1.02431
510.71004,1.17092
509.22025,1.53949
507.73046,1.36480
506.24068,1.29728
504.75089,1.22982
503.26110,1.10117
501.77131,1.00319
500.28152,1.10039
498.79173,1.19764
497.30194,1.13041
495.81216,0.87957
494.32237,0.91191
492.83258,0.94430
491.34279,0.94613
489.85300,0.80261
488.36321,0.82749
486.87343,0.82181
485.38364,0.81618
483.89385,0.60398
482.40406,0.38417
480.91427,0.45138
479.42448,0.51863
477.93469,0.10001
476.44491,0.27832
474.95512,0.27301
473.46533,0.26776
471.97554,0.19368
470.48575,0.47931
468.99596,0.48185
467.50618,0.31608
466.01639,0.15036
464.52660,0.00000
463.03681,0.48557
461.54702,0.45465
460.05723,0.42378
458.56745,0.48096
457.07766,0.41575
455.58787,0.49216
454.09808,0.56862
452.60829,0.93973
451.11850,1.10428
449.62871,1.07757
448.13893,1.05091
446.64914,1.35334
445.15935,1.04363
443.66956,1.28494
442.17977,1.45743
440.68998,1.62996
439.20020,1.49645
437.71041,0.80437
436.22062,0.98469
434.73083,1.16507
433.24104,1.11592
431.75125,1.20457
430.26146,1.16317
428.77168,1.12181
427.28189,1.04990
425.79210,1.60552
424.30231,1.56814
422.81252,1.53080
421.32273,1.58917
419.83295,1.14252
418.34316,1.13593
416.85337,1.12940
415.36358,1.55527
413.87379,1.85874
412.38400,1.65721
410.89422,1.45573
409.40443,1.10124
407.91464,1.04525
406.42485,0.85156
404.93506,0.77653
403.44527,0.70154
401.95548,0.68400
400.46570,0.72773
398.97591,0.69880
397.48612,0.66992
395.99633,0.73674
394.50654,0.48221
393.01675,0.64096
391.52697,0.79975
390.03718,0.65250
388.54739,1.00269
387.05760,0.88614
385.56781,0.76964
384.07802,0.66849
382.58824,0.30720
381.09845,0.33241
379.60866,0.35767
378.11887,0.44036
376.62908,0.19405
375.13929,0.23476
373.64950,0.27551
372.15972,0.28187
370.66993,0.43367
369.18014,0.25647
367.69035,0.07932
366.20056,0.32752
364.71077,0.45334
363.22099,0.39172
361.73120,0.33014
360.24141,0.02758
358.75162,0.45202
357.26183,0.42120
355.77204,0.39043
354.28225,0.37118
352.79247,0.31372
351.30268,0.24482
349.81289,0.17598
348.32310,0.42476
346.83331,0.30626
345.34352,0.29878
343.85374,0.29134
342.36395,0.60153
340.87416,0.13122
339.38437,0.21445
337.89458,0.29772
336.40479,0.27392
334.91501,0.21954
333.42522,0.12696
331.93543,0.03442
330.44564,0.04906
328.95585,0.30098
327.46606,0.27745
325.97627,0.25397
324.48649,0.16933
322.99670,0.48060
321.50691,0.33279
320.01712,0.18502
318.52733,0.19035
317.03754,0.27224
315.54776,0.13610
314.05797,0.00000
312.56818,0.45618
311.07839,0.55276
309.58860,0.53842
308.09881,0.52413
306.60902,0.37596
305.11924,0.31968
303.62945,0.17927
302.13966,0.03890
300.64987,0.26047
299.16008,0.00000
