1778.52000,0.12675
1777.03021,0.15219
1775.54042,0.10501
1774.05063,0.24855
1772.56085,0.42844
1771.07106,0.00000
1769.58127,0.22535
1768.09148,0.35086
1766.60169,0.02239
1765.11190,0.52024
1763.62212,0.40068
1762.13233,0.22667
1760.64254,0.36141
1759.15275,0.36906
1757.66296,0.26779
1756.17317,0.63870
1754.68339,0.27417
1753.19360,0.00955
1751.70381,0.67209
1750.21402,0.27230
1748.72423,0.28115
1747.23444,0.32635
1745.74465,0.29893
1744.25487,0.15351
1742.76508,0.21696
1741.27529,0.39848
1739.78550,0.44384
1738.29571,0.35302
1736.80592,0.41660
1735.31614,0.30768
1733.82635,0.24420
1732.33656,0.28064
1730.84677,0.42605
1729.35698,0.20831
1727.86719,0.38104
1726.37740,0.14520
1724.88762,0.19087
1723.39783,0.06405
1721.90804,0.28230
1720.41825,0.07382
1718.92846,0.29213
1717.43867,0.40152
1715.94889,0.24762
1714.45910,0.39339
1712.96931,0.25771
1711.47952,0.21286
1709.98973,0.27700
1708.49994,0.34118
1707.01016,0.25557
1705.52037,0.16999
1704.03058,0.32506
1702.54079,0.20776
1701.05100,0.47185
1699.56121,0.48174
1698.07142,0.48257
1696.58164,0.22012
1695.09185,0.20286
1693.60206,0.28552
1692.11227,0.19568
1690.62248,0.30563
1689.13269,0.31573
1687.64291,0.65275
1686.15312,0.51764
1684.66333,0.29176
1683.17354,0.39280
1681.68375,0.49386
1680.19396,0.47691
1678.70417,0.42368
1677.21439,0.37048
1675.72460,0.19927
1674.23481,0.41853
1672.74502,0.20198
1671.25523,0.33958
1669.76544,0.64974
1668.27566,0.55132
1666.78587,0.56190
1665.29608,0.37276
1663.80629,0.35616
1662.31650,0.36683
1660.82671,0.11421
1659.33693,0.29747
1657.84714,0.38088
1656.35735,0.30996
1654.86756,0.24815
1653.37777,0.23178
1651.88798,0.37887
1650.39819,0.30807
1648.90841,0.33719
1647.41862,0.14842
1645.92883,0.16852
1644.43904,0.18865
1642.94925,0.61741
1641.45946,0.33797
1639.96968,0.21292
1638.47989,0.33305
1636.99010,0.50770
1635.50031,0.23746
1634.01052,0.22150
1632.52073,0.85024
1631.03094,0.48930
1629.54116,0.24643
1628.05137,0.29415
1626.56158,0.26017
1625.07179,0.52587
1623.58200,0.22865
1622.09221,0.41270
1620.60243,0.19725
1619.11264,0.00000
1617.62285,0.51557
1616.13306,0.33202
1614.64327,0.33917
1613.15348,0.11936
1611.66370,0.28094
1610.17391,0.23371
1608.68412,0.36811
1607.19433,0.46621
1605.70454,0.66424
1604.21475,0.39013
1602.72496,0.11607
1601.23518,0.50486
1599.74539,0.50325
1598.25560,0.32916
1596.76581,0.32761
1595.27602,0.28978
1593.78623,0.08853
1592.29645,0.32316
1590.80666,0.12198
1589.31687,0.36575
1587.82708,0.07383
1586.33729,0.37215
1584.84750,0.47981
1583.35771,0.37867
1581.86793,0.35927
1580.37814,0.43072
1578.88835,0.24795
1577.39856,0.27406
1575.90877,0.44547
1574.41898,0.08120
1572.92920,0.26175
1571.43941,0.44234
1569.94962,0.30971
1568.45983,0.17709
1566.97004,0.14894
1565.48025,0.33873
1563.99047,0.35604
1562.50068,0.11914
1561.01089,0.23639
1559.52110,0.33551
1558.03131,0.05331
1556.54152,0.13433
1555.05173,0.44239
1553.56195,0.12396
1552.07216,0.38668
1550.58237,0.29531
1549.09258,0.28569
1547.60279,0.19438
1546.11300,0.03047
1544.62322,0.26611
1543.13343,0.06594
1541.64364,0.22900
1540.15385,0.28313
1538.66406,0.33730
1537.17427,0.26437
1535.68448,0.16423
1534.19470,0.17309
1532.70491,0.23646
1531.21512,0.18183
1529.72533,0.25433
1528.23554,0.00000
1526.74575,0.08699
1525.25597,0.37377
1523.76618,0.40634
1522.27639,0.11206
1520.78660,0.14470
1519.29681,0.38620
1517.80702,0.21005
1516.31724,0.21554
1514.82745,0.27554
1513.33766,0.25840
1511.84787,0.24128
1510.35808,0.14701
1508.86829,0.13450
1507.37850,0.02214
1505.88872,0.29117
1504.39893,0.15162
1502.90914,0.24820
1501.41935,0.25400
1499.92956,0.25076
1498.43977,0.13859
1496.94999,0.32608
1495.46020,0.20490
1493.97041,0.23809
1492.48062,0.36213
1490.99083,0.43171
1489.50104,0.63753
1488.01125,0.63454
1486.52147,0.63158
1485.03168,0.52877
1483.54189,0.83459
1482.05210,0.62288
1480.56231,0.78349
1479.07252,0.74436
1477.58274,0.63264
1476.09295,0.53001
1474.60316,0.89958
1473.11337,1.14207
1471.62358,0.86702
1470.13379,1.26393
1468.64401,1.10698
1467.15422,0.98640
1465.66443,0.96118
1464.17464,0.93598
1462.68485,0.89721
1461.19506,0.66778
1459.70527,0.72895
1458.21549,0.52683
1456.72570,0.73334
1455.23591,0.56760
1453.74612,0.58350
1452.25633,0.68114
1450.76654,0.38838
1449.27676,0.25001
1447.78697,0.17522
1446.29718,0.32747
1444.80739,0.39350
1443.31760,0.45955
1441.82781,0.21238
1440.33802,0.45555
1438.84824,0.43544
1437.35845,0.46984
1435.86866,0.15016
1434.37887,0.33898
1432.88908,0.17371
1431.39929,0.26272
1429.90951,0.38808
1428.41972,0.46806
1426.92993,0.39373
1425.44014,0.58274
1423.95035,0.53116
1422.46056,0.47962
1420.97078,0.10576
1419.48099,0.45835
1417.99120,0.23891
1416.50141,0.31915
1415.01162,0.17243
1413.52183,0.50698
1412.03204,0.20595
1410.54226,0.44975
1409.05247,0.29408
1407.56268,0.34727
1406.07289,0.54577
1404.58310,0.43559
1403.09331,0.32543
1401.60353,0.66930
1400.11374,0.60461
1398.62395,0.68523
1397.13416,0.58429
1395.64437,0.51061
1394.15458,0.63672
1392.66479,1.01711
1391.17501,0.48045
1389.68522,1.06974
1388.19543,0.68750
1386.70564,0.65487
1385.21585,0.62227
1383.72606,0.83941
1382.23628,0.86589
1380.74649,0.97414
1379.25670,0.53761
1377.76691,0.71855
1376.27712,0.96308
1374.78733,0.88076
1373.29755,0.66228
1371.80776,1.03403
1370.31797,0.94273
1368.82818,0.86508
1367.33839,0.78746
1365.84860,1.01405
1364.35881,1.06816
1362.86903,1.28574
1361.37924,0.93131
1359.88945,1.22159
1358.39966,0.85814
1356.90987,0.70356
1355.42008,0.97578
1353.93030,0.97562
1352.44051,1.04814
1350.95072,1.12069
1349.46093,1.08431
1347.97114,0.94808
1346.48135,0.81189
1344.99156,0.51228
1343.50178,0.85739
1342.01199,0.70313
1340.52220,0.66694
1339.03241,0.70342
1337.54262,0.60373
1336.05283,0.55402
1334.56305,0.50433
1333.07326,0.70438
1331.58347,0.56850
1330.09368,0.54161
1328.60389,0.64187
1327.11410,0.39713
1325.62432,0.63365
1324.13453,0.78849
1322.64474,0.45304
1321.15495,0.30830
1319.66516,0.44053
1318.17537,0.57279
1316.68558,0.32827
1315.19580,0.31986
1313.70601,0.39319
1312.21622,0.22141
1310.72643,0.34928
1309.23664,0.32284
1307.74685,0.21470
1306.25707,0.41532
1304.76728,0.31178
1303.27749,0.20828
1301.78770,0.38175
1300.29791,0.34641
1298.80812,0.44731
1297.31834,0.32123
1295.82855,0.32231
1294.33876,0.45054
1292.84897,0.27007
1291.35918,0.47101
1289.86939,0.42681
1288.37960,0.38265
1286.88982,0.60183
1285.40003,0.42152
1283.91024,0.56813
1282.42045,0.37881
1280.93066,0.34389
1279.44087,0.34531
1277.95109,0.41940
1276.46130,0.78409
1274.97151,0.71297
1273.48172,0.64188
1271.99193,0.43462
1270.50214,0.71771
1269.01235,0.61948
1267.52257,0.49403
1266.03278,0.37770
1264.54299,0.78804
1263.05320,0.60821
1261.56341,0.59639
1260.07362,0.58460
1258.58384,0.37763
1257.09405,0.47032
1255.60426,0.49949
1254.11447,0.45605
1252.62468,0.40356
1251.13489,0.34202
1249.64511,0.56200
1248.15532,0.63672
1246.66553,0.60706
1245.17574,0.57743
1243.68595,0.56145
1242.19616,0.40930
1240.70637,0.25718
1239.21659,0.38658
1237.72680,0.08017
1236.23701,0.32766
1234.74722,0.34820
1233.25743,0.38237
1231.76764,0.41658
1230.27786,0.36457
1228.78807,0.36707
1227.29828,0.24247
1225.80849,0.38123
1224.31870,0.17498
1222.82891,0.15944
1221.33912,0.38002
1219.84934,0.45534
1218.35955,0.53070
1216.86976,0.35185
1215.37997,0.20935
1213.89018,0.40283
1212.40039,0.56004
1210.91061,0.54475
1209.42082,0.59306
1207.93103,0.41440
1206.44124,0.23576
1204.95145,0.53840
1203.46166,0.12376
1201.97188,0.19038
1200.48209,0.18440
1198.99230,0.21477
1197.50251,0.00000
1196.01272,0.19499
1194.52293,0.11760
1193.03314,0.04025
1191.54336,0.39877
1190.05357,0.28516
1188.56378,0.46214
1187.07399,0.22148
1185.58420,0.45300
1184.09441,0.22148
1182.60463,0.11257
1181.11484,0.00370
1179.62505,0.29891
1178.13526,0.37623
1176.64547,0.43543
1175.15568,0.28582
1173.66589,0.34507
1172.17611,0.38620
1170.68632,0.40920
1169.19653,0.43224
1167.70674,0.76402
1166.21695,0.47840
1164.72716,0.48337
1163.23738,0.18873
1161.74759,0.20284
1160.25780,0.44398
1158.76801,0.48993
1157.27822,0.53592
1155.78843,0.81347
1154.29865,0.76418
1152.80886,0.71492
1151.31907,0.63846
1149.82928,0.68914
1148.33949,0.62181
1146.84970,0.66348
1145.35991,0.70518
1143.87013,0.88311
1142.38034,1.14278
1140.89055,0.65794
1139.40076,0.99940
1137.91097,0.94137
1136.42118,0.76535
1134.93140,0.83904
1133.44161,0.91277
1131.95182,1.00923
1130.46203,1.03309
1128.97224,1.31121
1127.48245,1.43501
1125.99266,0.91416
1124.50288,1.20146
1123.01309,1.13921
1121.52330,1.07699
1120.03351,0.87406
1118.54372,1.01621
1117.05393,0.83150
1115.56415,0.67408
1114.07436,0.97067
1112.58457,1.01307
1111.09478,1.05549
1109.60499,1.02531
1108.11520,1.04963
1106.62542,1.22835
1105.13563,1.40709
1103.64584,1.12280
1102.15605,1.05645
1100.66626,1.02645
1099.17647,0.99649
1097.68668,0.76680
1096.19690,0.76413
1094.70711,1.20643
1093.21732,1.13118
1091.72753,1.31930
1090.23774,1.30769
1088.74795,1.29610
1087.25817,1.16651
1085.76838,1.15499
1084.27859,1.60658
1082.78880,1.38628
1081.29901,1.50198
1079.80922,1.21818
1078.31943,1.37026
1076.82965,1.52237
1075.33986,1.43843
1073.85007,1.31820
1072.36028,1.22524
1070.87049,1.12324
1069.38070,1.29366
1067.89092,1.25074
1066.40113,1.20785
1064.91134,1.27849
1063.42155,1.51260
1061.93176,1.40171
1060.44197,1.29084
1058.95219,1.57953
1057.46240,1.38701
1055.97261,1.19452
1054.48282,1.20182
1052.99303,1.61775
1051.50324,1.22560
1050.01345,0.59740
1048.52367,0.95895
1047.03388,0.88014
1045.54409,0.80138
1044.05430,0.88154
1042.56451,0.95265
1041.07472,0.71507
1039.58494,0.62282
1038.09515,0.74850
1036.60536,0.69263
1035.11557,0.63677
1033.62578,0.52648
1032.13599,0.31633
1030.64620,0.08806
1029.15642,0.57714
1027.66663,0.51691
1026.17684,0.45671
1024.68705,0.64624
1023.19726,0.88120
1021.70747,1.14344
1020.21769,0.65207
1018.72790,1.18676
1017.23811,1.34467
1015.74832,1.50262
1014.25853,1.14757
1012.76874,1.84583
1011.27896,1.67245
1009.78917,1.97126
1008.29938,1.61634
1006.80959,1.60195
1005.31980,1.58759
1003.83001,1.76848
1002.34022,1.77689
1000.85044,1.44937
999.36065,1.59404
997.87086,1.55714
996.38107,1.52027
994.89128,1.43803
993.40149,1.37398
991.91171,1.30089
990.42192,1.47299
988.93213,1.44536
987.44234,1.21346
985.95255,0.98159
984.46276,1.34450
982.97297,1.17171
981.48319,1.35308
979.99340,1.04416
978.50361,1.03037
977.01382,1.01661
975.52403,0.82583
974.03424,0.67139
972.54446,1.07087
971.05467,0.88017
969.56488,0.76216
968.07509,0.74405
966.58530,0.72597
965.09551,0.45368
963.60573,0.59911
962.11594,0.28148
960.62615,0.47238
959.13636,0.59519
957.64657,0.71805
956.15678,0.40055
954.66699,0.40997
953.17721,0.50113
951.68742,0.36533
950.19763,0.47018
948.70784,0.57506
947.21805,0.59371
945.72826,0.10392
944.23848,0.21343
942.74869,0.50458
941.25890,0.51428
939.76911,0.72377
938.27932,0.93329
936.78953,0.69792
935.29974,0.71683
933.80996,0.79024
932.32017,0.66393
930.83038,0.66023
929.34059,0.65656
927.85080,0.95711
926.36101,1.18504
924.87123,0.95901
923.38144,0.86012
921.89165,0.93379
920.40186,1.00749
918.91207,1.29006
917.42228,1.07326
915.93250,0.88374
914.44271,1.09377
912.95292,1.24481
911.46313,1.39588
909.97334,0.90684
908.48355,0.53587
906.99376,0.59170
905.50398,0.48411
904.01419,0.49460
902.52440,0.50512
901.03461,0.33407
899.54482,0.77141
898.05503,0.68214
896.56525,0.72003
895.07546,0.73524
893.58567,0.75049
892.09588,0.78847
890.60609,0.77200
889.11630,0.81912
887.62651,0.89351
886.13673,0.82266
884.64694,0.75184
883.15715,1.04425
881.66736,0.98257
880.17757,1.12068
878.68778,1.21342
877.19800,1.30620
875.70821,1.30821
874.21842,0.96520
872.72863,1.18519
871.23884,1.44153
869.74905,1.52085
868.25927,1.60019
866.76948,1.59331
865.27969,1.88609
863.78990,1.52516
862.30011,1.53652
860.81032,1.47075
859.32053,1.40500
857.83075,1.81599
856.34096,2.00000
854.85117,1.61201
853.36138,1.50553
851.87159,1.48080
850.38180,1.45610
848.89202,1.21352
847.40223,1.19796
845.91244,1.03716
844.42265,1.14425
842.93286,1.25137
841.44307,0.57310
839.95329,1.02079
838.46350,0.63314
836.97371,0.59057
835.48392,0.58888
833.99413,0.58724
832.50434,0.66279
831.01455,0.46599
829.52477,0.56885
828.03498,0.64451
826.54519,0.74289
825.05540,0.84131
823.56561,0.45398
822.07582,0.58425
820.58604,0.13342
819.09625,0.34547
817.60646,0.55754
816.11667,0.35197
814.62688,0.50055
813.13709,0.32228
811.64730,0.00784
810.15752,0.13836
808.66773,0.26890
807.17794,0.26328
805.68815,0.26677
804.19836,0.10685
802.70857,0.30108
801.21879,0.49534
799.72900,0.37184
798.23921,0.30285
796.74942,0.52444
795.25963,0.43282
793.76984,0.34121
792.28006,0.40855
790.79027,0.23075
789.30048,0.31631
787.81069,0.21122
786.32090,0.19696
784.83111,0.18273
783.34132,0.24117
781.85154,0.00000
780.36175,0.40242
778.87196,0.26007
777.38217,0.11776
775.89238,0.52027
774.40259,0.30538
772.91281,0.16316
771.42302,0.27067
769.93323,0.37821
768.44344,0.00000
766.95365,0.35631
765.46386,0.37670
763.97407,0.36079
762.48429,0.27228
760.99450,0.18380
759.50471,0.26787
758.01492,0.29749
756.52513,0.39070
755.03534,0.30689
753.54556,0.22310
752.05577,0.35273
750.56598,0.20091
749.07619,0.33968
747.58640,0.35590
746.09661,0.37216
744.60683,0.30218
743.11704,0.25040
741.62725,0.08061
740.13746,0.20141
738.64767,0.32224
737.15788,0.06174
735.66809,0.31884
734.17831,0.37620
732.68852,0.46992
731.19873,0.56367
729.70894,0.24885
728.21915,0.25186
726.72936,0.03699
725.23958,0.05822
723.74979,0.03409
722.26000,0.00999
720.77021,0.13120
719.28042,0.14348
717.79063,0.31923
716.30084,0.42692
714.81106,0.53463
713.32127,0.37452
711.83148,0.29616
710.34169,0.47207
708.85190,0.28028
707.36211,0.08851
705.87233,0.31900
704.38254,0.05011
702.89275,0.26250
701.40296,0.39774
699.91317,0.53301
698.42338,0.41861
696.93360,0.31333
695.44381,0.30796
693.95402,0.31623
692.46423,0.32454
690.97444,0.49178
689.48465,0.34126
687.99486,0.08180
686.50508,0.28092
685.01529,0.48006
683.52550,0.52942
682.03571,0.30641
680.54592,0.36491
679.05613,0.44614
677.56635,0.52741
676.07656,0.66772
674.58677,0.27235
673.09698,0.08586
671.60719,0.15362
670.11740,0.22142
668.62761,0.17122
667.13783,0.15736
665.64804,0.18440
664.15825,0.21147
662.66846,0.37931
661.17867,0.22030
659.68888,0.25201
658.19910,0.23834
656.70931,0.22471
655.21952,0.19294
653.72973,0.46993
652.23994,0.20215
650.75015,0.29307
649.26037,0.38401
647.77058,0.34332
646.28079,0.43888
644.79100,0.33469
643.30121,0.28048
641.81142,0.22631
640.32163,0.44002
638.83185,0.00000
637.34206,0.16358
635.85227,0.20007
634.36248,0.23659
632.87269,0.24590
631.38290,0.07365
629.89312,0.49162
628.40333,0.34667
626.91354,0.20175
625.42375,0.22030
623.93396,0.36600
622.44417,0.39370
620.95438,0.42142
619.46460,0.42194
617.97481,0.38616
616.48502,0.16882
614.99523,0.13765
613.50544,0.10652
612.01565,0.12535
610.52587,0.30766
609.03608,0.20852
607.54629,0.29100
606.05650,0.37353
604.56671,0.50147
603.07692,0.47510
601.58714,0.43967
600.09735,0.40428
598.60756,0.05112
597.11777,0.32451
595.62798,0.40725
594.13819,0.27664
592.64840,0.14607
591.15862,0.18350
589.66883,0.10293
588.17904,0.05871
586.68925,0.22790
585.19946,0.39712
583.70967,0.55276
582.21989,0.48142
580.73010,0.48730
579.24031,0.49320
577.75052,0.34024
576.26073,0.41432
574.77094,0.64278
573.28115,0.51261
571.79137,0.38248
570.30158,0.50208
568.81179,0.61263
567.32200,0.67781
565.83221,0.74301
564.34242,0.59942
562.85264,0.71918
561.36285,1.24756
559.87306,1.02688
558.38327,0.80623
556.89348,0.96243
555.40369,1.28210
553.91391,1.28401
552.42412,1.28594
550.93433,1.69651
549.44454,1.27175
547.95475,1.21930
546.46496,1.35302
544.97517,1.48678
543.48539,1.26190
541.99560,1.25498
540.50581,1.43877
539.01602,1.62258
537.52623,1.60667
536.03644,1.45460
534.54666,1.30255
533.05687,1.49104
531.56708,1.67956
530.07729,1.46405
528.58750,1.65717
527.09771,1.45988
525.60792,1.26262
524.11814,0.92012
522.62835,1.01348
521.13856,0.92528
519.64877,1.00055
518.15898,1.07585
516.66919,1.08762
515.17941,0.92691
513.68962,0.92059
512.19983,0.91429
510.71004,0.88079
509.22025,1.28316
507.73046,0.90468
506.24068,0.86220
504.75089,0.81974
503.26110,0.72284
501.77131,1.26157
500.28152,1.10116
498.79173,0.94080
497.30194,0.88034
495.81216,0.82899
494.32237,0.85940
492.83258,0.88984
491.34279,0.70239
489.85300,0.66025
488.36321,0.64538
486.87343,0.60784
485.38364,0.57034
483.89385,0.59188
482.40406,0.33198
480.91427,0.24918
479.42448,0.16640
477.93469,0.61483
476.44491,0.05542
474.95512,0.07715
473.46533,0.09891
471.97554,0.02083
470.48575,0.23335
468.99596,0.19165
467.50618,0.22262
466.01639,0.25363
464.52660,0.23019
463.03681,0.34297
461.54702,0.34229
460.05723,0.34164
458.56745,0.53624
457.07766,0.30412
455.58787,0.48970
454.09808,0.67532
452.60829,1.06073
451.11850,0.74701
449.62871,0.89187
448.13893,1.03675
446.64914,1.09540
445.15935,0.97249
443.66956,1.02213
442.17977,1.02640
440.68998,1.03070
439.20020,0.93515
437.71041,0.73068
436.22062,0.69421
434.73083,0.65778
433.24104,1.07992
431.75125,1.21153
430.26146,1.18427
428.77168,1.15704
427.28189,1.12531
425.79210,0.86661
424.30231,0.99384
422.81252,1.12110
421.32273,1.00776
419.83295,1.13055
418.34316,1.11716
416.85337,1.10381
415.36358,1.30841
413.87379,1.18615
412.38400,1.12750
410.89422,1.06887
409.40443,1.06475
407.91464,0.97894
406.42485,0.64801
404.93506,0.76657
403.44527,0.88516
401.95548,0.82672
400.46570,0.65028
398.97591,0.65546
397.48612,0.66068
395.99633,0.74765
394.50654,0.78016
393.01675,0.69013
391.52697,0.60014
390.03718,0.70539
388.54739,0.96503
387.05760,0.84789
385.56781,0.73078
384.07802,0.65456
382.58824,0.43310
381.09845,0.52491
379.60866,0.61677
378.11887,0.43171
376.62908,0.35565
375.13929,0.37950
373.64950,0.40339
372.15972,0.59073
370.66993,0.34228
369.18014,0.33902
367.69035,0.33578
366.20056,0.72302
364.71077,0.38389
363.22099,0.44431
361.73120,0.50476
360.24141,0.38365
358.75162,0.47141
357.26183,0.48201
355.77204,0.49265
354.28225,0.38982
352.79247,0.47770
351.30268,0.39764
349.81289,0.31760
348.32310,0.11502
346.83331,0.45727
345.34352,0.52261
343.85374,0.58798
342.36395,0.08588
340.87416,0.27389
339.38437,0.22132
337.89458,0.16878
336.40479,0.42953
334.91501,0.36343
333.42522,0.28828
331.93543,0.21317
330.44564,0.35600
328.95585,0.52611
327.46606,0.43746
325.97627,0.34886
324.48649,0.24665
322.99670,0.07185
321.50691,0.21400
320.01712,0.35617
318.52733,0.58918
317.03754,0.17754
315.54776,0.14729
314.05797,0.11708
312.56818,0.21401
311.07839,0.11122
309.58860,0.25816
308.09881,0.40513
306.60902,0.13899
305.11924,0.00000
303.62945,0.08380
302.13966,0.11637
300.64987,0.03093
299.16008,0.00000
