1778.52000,0.13409
1777.03021,0.01991
1775.54042,0.16441
1774.05063,0.12227
1772.56085,0.03716
1771.07106,0.02397
1769.58127,0.12377
1768.09148,0.00000
1766.60169,0.10617
1765.11190,0.21246
1763.62212,0.13007
1762.13233,0.50129
1760.64254,0.17903
1759.15275,0.44583
1757.66296,0.47469
1756.17317,0.03581
1754.68339,0.03001
1753.19360,0.04075
1751.70381,0.01466
1750.21402,0.10975
1748.72423,0.31576
1747.23444,0.12790
1745.74465,0.12072
1744.25487,0.08288
1742.76508,0.11697
1741.27529,0.00343
1739.78550,0.12598
1738.29571,0.26096
1736.80592,0.00000
1735.31614,0.22296
1733.82635,0.09514
1732.33656,0.15621
1730.84677,0.22971
1729.35698,0.29922
1727.86719,0.04461
1726.37740,0.07536
1724.88762,0.36887
1723.39783,0.12076
1721.90804,0.33242
1720.41825,0.32257
1718.92846,0.21639
1717.43867,0.23754
1715.94889,0.31011
1714.45910,0.18784
1712.96931,0.16829
1711.47952,0.28428
1709.98973,0.24444
1708.49994,0.17597
1707.01016,0.17636
1705.52037,0.17687
1704.03058,0.16619
1702.54079,0.12485
1701.05100,0.24574
1699.56121,0.27234
1698.07142,0.20466
1696.58164,0.26021
1695.09185,0.14966
1693.60206,0.29368
1692.11227,0.53836
1690.62248,0.63335
1689.13269,0.37960
1687.64291,0.46456
1686.15312,0.32595
1684.66333,0.18130
1683.17354,0.30147
1681.68375,0.29864
1680.19396,0.48675
1678.70417,0.20096
1677.21439,0.15331
1675.72460,0.01549
1674.23481,0.13839
1672.74502,0.34348
1671.25523,0.46250
1669.76544,0.30871
1668.27566,0.08731
1666.78587,0.17588
1665.29608,0.36717
1663.80629,0.25282
1662.31650,0.42586
1660.82671,0.54156
1659.33693,0.44601
1657.84714,0.44291
1656.35735,0.14443
1654.86756,0.12309
1653.37777,0.04440
1651.88798,0.14230
1650.39819,0.29983
1648.90841,0.44104
1647.41862,0.28483
1645.92883,0.23543
1644.43904,0.18614
1642.94925,0.23341
1641.45946,0.43676
1639.96968,0.52529
1638.47989,0.40053
1636.99010,0.49750
1635.50031,0.27651
1634.01052,0.29778
1632.52073,0.45664
1631.03094,0.51097
1629.54116,0.03597
1628.05137,0.09463
1626.56158,0.04053
1625.07179,0.21021
1623.58200,0.20764
1622.09221,0.35292
1620.60243,0.37109
1619.11264,0.15955
1617.62285,0.31338
1616.13306,0.59660
1614.64327,0.67062
1613.15348,0.28099
1611.66370,0.17671
1610.17391,0.27775
1608.68412,0.45277
1607.19433,0.57865
1605.70454,0.53023
1604.21475,0.43984
1602.72496,0.34957
1601.23518,0.45333
1599.74539,0.66391
1598.25560,0.63451
1596.76581,0.43080
1595.27602,0.37495
1593.78623,0.33973
1592.29645,0.24716
1590.80666,0.22653
1589.31687,0.58564
1587.82708,0.54266
1586.33729,0.70705
1584.84750,0.50218
1583.35771,0.38977
1581.86793,0.35544
1580.37814,0.53259
1578.88835,0.50260
1577.39856,0.30855
1575.90877,0.26852
1574.41898,0.34967
1572.92920,0.00000
1571.43941,0.38513
1569.94962,0.34868
1568.45983,0.31234
1566.97004,0.24841
1565.48025,0.34259
1563.99047,0.35892
1562.50068,0.27480
1561.01089,0.28519
1559.52110,0.15615
1558.03131,0.40275
1556.54152,0.39911
1555.05173,0.14934
1553.56195,0.27726
1552.07216,0.08927
1550.58237,0.37747
1549.09258,0.31694
1547.60279,0.33859
1546.11300,0.33574
1544.62322,0.28375
1543.13343,0.49863
1541.64364,0.44481
1540.15385,0.35725
1538.66406,0.26979
1537.17427,0.40304
1535.68448,0.31273
1534.19470,0.25537
1532.70491,0.11809
1531.21512,0.15124
1529.72533,0.00597
1528.23554,0.08654
1526.74575,0.30266
1525.25597,0.47990
1523.76618,0.43563
1522.27639,0.41815
1520.78660,0.38642
1519.29681,0.37532
1517.80702,0.31508
1516.31724,0.41912
1514.82745,0.12312
1513.33766,0.15659
1511.84787,0.19017
1510.35808,0.25156
1508.86829,0.37258
1507.37850,0.04636
1505.88872,0.15323
1504.39893,0.03449
1502.90914,0.00000
1501.41935,0.08104
1499.92956,0.10883
1498.43977,0.45070
1496.94999,0.49924
1495.46020,0.64844
1493.97041,0.46737
1492.48062,0.56344
1490.99083,0.83610
1489.50104,0.56713
1488.01125,0.41627
1486.52147,0.26551
1485.03168,0.23287
1483.54189,0.51634
1482.05210,0.29513
1480.56231,0.40236
1479.07252,0.51380
1477.58274,0.73617
1476.09295,0.89914
1474.60316,0.98013
1473.11337,1.12691
1471.62358,1.08501
1470.13379,1.10273
1468.64401,1.15339
1467.15422,1.14671
1465.66443,1.10116
1464.17464,1.05571
1462.68485,1.02064
1461.19506,0.76200
1459.70527,0.48502
1458.21549,0.52005
1456.72570,0.45669
1455.23591,0.67869
1453.74612,0.54579
1452.25633,0.64693
1450.76654,0.45475
1449.27676,0.55612
1447.78697,0.32517
1446.29718,0.31390
1444.80739,0.41971
1443.31760,0.52563
1441.82781,0.49212
1440.33802,0.46694
1438.84824,0.14227
1437.35845,0.17887
1435.86866,0.20942
1434.37887,0.13544
1432.88908,0.00000
1431.39929,0.05831
1429.90951,0.05928
1428.41972,0.26762
1426.92993,0.46171
1425.44014,0.36041
1423.95035,0.29821
1422.46056,0.23613
1420.97078,0.23366
1419.48099,0.53707
1417.99120,0.41581
1416.50141,0.38700
1415.01162,0.22903
1413.52183,0.23944
1412.03204,0.28485
1410.54226,0.54788
1409.05247,0.44166
1407.56268,0.48535
1406.07289,0.33626
1404.58310,0.35760
1403.09331,0.37905
1401.60353,0.56273
1400.11374,0.38741
1398.62395,0.41125
1397.13416,0.26693
1395.64437,0.35666
1394.15458,0.54706
1392.66479,0.66779
1391.17501,0.57317
1389.68522,0.08057
1388.19543,0.18112
1386.70564,0.25921
1385.21585,0.33741
1383.72606,0.49985
1382.23628,0.47363
1380.74649,0.58294
1379.25670,0.52205
1377.76691,0.45307
1376.27712,0.42523
1374.78733,0.58835
1373.29755,0.57511
1371.80776,0.74461
1370.31797,0.81367
1368.82818,0.91567
1367.33839,1.01779
1365.84860,1.14875
1364.35881,1.10334
1362.86903,1.18322
1361.37924,1.13188
1359.88945,0.94932
1358.39966,0.73815
1356.90987,0.77333
1355.42008,0.73681
1353.93030,0.91175
1352.44051,0.99447
1350.95072,1.07730
1349.46093,1.02480
1347.97114,1.03809
1346.48135,0.90579
1344.99156,0.62174
1343.50178,0.52455
1342.01199,0.24689
1340.52220,0.69782
1339.03241,0.47169
1337.54262,0.59246
1336.05283,0.42298
1334.56305,0.25361
1333.07326,0.23928
1331.58347,0.22712
1330.09368,0.29305
1328.60389,0.54172
1327.11410,0.48885
1325.62432,0.42173
1324.13453,0.18440
1322.64474,0.15444
1321.15495,0.14101
1319.66516,0.13282
1318.17537,0.12475
1316.68558,0.26350
1315.19580,0.41263
1313.70601,0.42028
1312.21622,0.20027
1310.72643,0.04603
1309.23664,0.08684
1307.74685,0.12982
1306.25707,0.09494
1304.76728,0.20381
1303.27749,0.31280
1301.78770,0.13461
1300.29791,0.19046
1298.80812,0.07816
1297.31834,0.09525
1295.82855,0.21915
1294.33876,0.49092
1292.84897,0.56990
1291.35918,0.54024
1289.86939,0.35474
1288.37960,0.16935
1286.88982,0.04358
1285.40003,0.00000
1283.91024,0.16063
1282.42045,0.48759
1280.93066,0.23187
1279.44087,0.54674
1277.95109,0.54981
1276.46130,0.58787
1274.97151,0.50293
1273.48172,0.41809
1271.99193,0.47086
1270.50214,0.28980
1269.01235,0.69369
1267.52257,0.65856
1266.03278,0.52503
1264.54299,0.60298
1263.05320,0.62564
1261.56341,0.64636
1260.07362,0.66718
1258.58384,0.49318
1257.09405,0.63530
1255.60426,0.39380
1254.11447,0.37814
1252.62468,0.31745
1251.13489,0.37178
1249.64511,0.84279
1248.15532,0.75165
1246.66553,0.67807
1245.17574,0.60460
1243.68595,0.66565
1242.19616,0.46209
1240.70637,0.24429
1239.21659,0.15177
1237.72680,0.18864
1236.23701,0.53343
1234.74722,0.64030
1233.25743,0.52360
1231.76764,0.40702
1230.27786,0.50601
1228.78807,0.48610
1227.29828,0.51760
1225.80849,0.26808
1224.31870,0.52142
1222.82891,0.36242
1221.33912,0.21173
1219.84934,0.30330
1218.35955,0.39498
1216.86976,0.01685
1215.37997,0.00000
1213.89018,0.15449
1212.40039,0.28856
1210.91061,0.88036
1209.42082,0.79714
1207.93103,0.55295
1206.44124,0.30887
1204.95145,0.17264
1203.46166,0.25813
1201.97188,0.23294
1200.48209,0.16886
1198.99230,0.16851
1197.50251,0.00000
1196.01272,0.08380
1194.52293,0.20977
1193.03314,0.33585
1191.54336,0.56568
1190.05357,0.76894
1188.56378,0.22947
1187.07399,0.32215
1185.58420,0.08866
1184.09441,0.12615
1182.60463,0.16786
1181.11484,0.20968
1179.62505,0.44040
1178.13526,0.34291
1176.64547,0.27631
1175.15568,0.26317
1173.66589,0.23578
1172.17611,0.25981
1170.68632,0.34551
1169.19653,0.43132
1167.70674,0.73680
1166.21695,0.66483
1164.72716,0.28106
1163.23738,0.00000
1161.74759,0.20996
1160.25780,0.23946
1158.76801,0.22495
1157.27822,0.21055
1155.78843,0.47022
1154.29865,0.72999
1152.80886,0.74568
1151.31907,0.73070
1149.82928,0.64607
1148.33949,0.71545
1146.84970,0.65669
1145.35991,0.59804
1143.87013,0.35995
1142.38034,0.45851
1140.89055,0.45048
1139.40076,0.54926
1137.91097,0.66046
1136.42118,0.64250
1134.93140,0.67493
1133.44161,0.70747
1131.95182,0.71857
1130.46203,0.85086
1128.97224,0.75958
1127.48245,1.08293
1125.99266,0.97341
1124.50288,0.89889
1123.01309,0.94144
1121.52330,0.98411
1120.03351,0.90582
1118.54372,0.85022
1117.05393,0.87885
1115.56415,0.69830
1114.07436,0.77641
1112.58457,0.72022
1111.09478,0.66415
1109.60499,0.71182
1108.11520,1.00379
1106.62542,1.02501
1105.13563,1.19613
1103.64584,1.09650
1102.15605,0.67686
1100.66626,0.63081
1099.17647,0.58486
1097.68668,0.60470
1096.19690,0.99812
1094.70711,0.64060
1093.21732,0.86597
1091.72753,1.17559
1090.23774,1.04414
1088.74795,0.91279
1087.25817,1.04627
1085.76838,1.17166
1084.27859,1.14530
1082.78880,1.14574
1081.29901,1.08472
1079.80922,1.07922
1078.31943,1.09641
1076.82965,1.11371
1075.33986,1.18652
1073.85007,1.07476
1072.36028,1.39610
1070.87049,1.06089
1069.38070,1.00077
1067.89092,1.06902
1066.40113,1.13737
1064.91134,1.20892
1063.42155,1.24159
1061.93176,1.16766
1060.44197,0.99330
1058.95219,1.08992
1057.46240,1.07789
1055.97261,1.06598
1054.48282,1.19987
1052.99303,1.04864
1051.50324,0.70873
1050.01345,0.49001
1048.52367,0.42119
1047.03388,0.54538
1045.54409,0.66969
1044.05430,0.71407
1042.56451,0.60261
1041.07472,0.34968
1039.58494,0.35335
1038.09515,0.74293
1036.60536,0.68835
1035.11557,0.63389
1033.62578,0.59082
1032.13599,0.51708
1030.64620,0.36753
1029.15642,0.41714
1027.66663,0.48225
1026.17684,0.54747
1024.68705,0.58715
1023.19726,0.91013
1021.70747,1.02597
1020.21769,0.79717
1018.72790,0.88860
1017.23811,0.98117
1015.74832,1.07386
1014.25853,1.53294
1012.76874,1.99009
1011.27896,2.00000
1009.78917,1.83355
1008.29938,1.74108
1006.80959,1.69284
1005.31980,1.64472
1003.83001,1.89528
1002.34022,1.82789
1000.85044,1.82627
999.36065,1.79398
997.87086,1.69819
996.38107,1.60252
994.89128,1.70190
993.40149,1.63928
991.91171,1.41261
990.42192,1.11833
988.93213,1.04784
987.44234,1.03492
985.95255,1.02211
984.46276,1.14279
982.97297,1.23281
981.48319,0.99666
979.99340,0.81809
978.50361,0.72273
977.01382,0.62748
975.52403,0.73652
974.03424,0.65484
972.54446,0.78668
971.05467,0.60878
969.56488,0.56231
968.07509,0.46466
966.58530,0.36712
965.09551,0.16709
963.60573,0.00000
962.11594,0.47501
960.62615,0.28527
959.13636,0.30803
957.64657,0.33090
956.15678,0.34260
954.66699,0.24154
953.17721,0.35606
951.68742,0.16084
950.19763,0.16478
948.70784,0.16882
947.21805,0.22223
945.72826,0.20598
944.23848,0.22268
942.74869,0.36261
941.25890,0.36927
939.76911,0.43042
938.27932,0.49168
936.78953,0.25243
935.29974,0.44423
933.80996,0.38167
932.32017,0.75632
930.83038,0.75145
929.34059,0.74669
927.85080,0.54916
926.36101,0.95298
924.87123,0.73310
923.38144,0.44355
921.89165,0.43217
920.40186,0.42091
918.91207,0.89095
917.42228,1.01227
915.93250,0.81768
914.44271,0.95358
912.95292,1.04855
911.46313,1.14364
909.97334,0.97207
908.48355,0.61387
906.99376,0.12241
905.50398,0.10918
904.01419,0.23355
902.52440,0.35804
901.03461,0.41902
899.54482,0.40625
898.05503,0.47976
896.56525,0.62932
895.07546,0.64458
893.58567,0.65995
892.09588,0.67646
890.60609,0.43042
889.11630,0.36918
887.62651,0.73898
886.13673,0.77235
884.64694,0.80584
883.15715,0.63218
881.66736,0.53661
880.17757,0.49861
878.68778,0.61668
877.19800,0.73486
875.70821,0.63564
874.21842,0.97566
872.72863,1.08186
871.23884,1.00349
869.74905,1.13147
868.25927,1.25955
866.76948,1.47086
865.27969,1.32932
863.78990,1.19816
862.30011,1.22101
860.81032,1.26758
859.32053,1.31425
857.83075,1.57138
856.34096,1.49002
854.85117,1.27335
853.36138,1.31944
851.87159,1.14198
850.38180,0.96463
848.89202,0.70326
847.40223,0.74980
845.91244,1.01397
844.42265,0.87503
842.93286,0.73620
841.44307,0.69906
839.95329,0.64972
838.46350,0.79954
836.97371,0.94947
835.48392,0.83583
833.99413,0.72230
832.50434,0.17486
831.01455,0.06463
829.52477,0.23975
828.03498,0.46423
826.54519,0.54004
825.05540,0.61597
823.56561,0.70124
822.07582,0.26335
820.58604,0.12723
819.09625,0.27645
817.60646,0.42579
816.11667,0.29616
814.62688,0.30823
813.13709,0.00645
811.64730,0.10288
810.15752,0.21481
808.66773,0.32685
807.17794,0.43182
805.68815,0.52460
804.19836,0.52309
802.70857,0.48988
801.21879,0.45679
799.72900,0.44536
798.23921,0.23294
796.74942,0.42693
795.25963,0.50612
793.76984,0.58543
792.28006,0.45759
790.79027,0.27650
789.30048,0.46080
787.81069,0.36818
786.32090,0.29414
784.83111,0.22021
783.34132,0.27362
781.85154,0.09116
780.36175,0.05861
778.87196,0.02925
777.38217,0.00000
775.89238,0.30679
774.40259,0.52135
772.91281,0.42001
771.42302,0.31057
769.93323,0.20124
768.44344,0.49012
766.95365,0.43437
765.46386,0.34795
763.97407,0.32115
762.48429,0.28010
760.99450,0.23917
759.50471,0.55745
758.01492,0.47775
756.52513,0.16217
755.03534,0.12578
753.54556,0.08951
752.05577,0.17441
750.56598,0.54467
749.07619,0.51694
747.58640,0.46367
746.09661,0.41051
744.60683,0.41800
743.11704,0.49743
741.62725,0.19323
740.13746,0.24723
738.64767,0.30134
737.15788,0.35658
735.66809,0.27856
734.17831,0.28068
732.68852,0.32395
731.19873,0.36733
729.70894,0.63655
728.21915,0.49753
726.72936,0.28679
725.23958,0.41681
723.74979,0.20835
722.26000,0.00000
720.77021,0.05265
719.28042,0.15056
717.79063,0.20138
716.30084,0.28822
714.81106,0.37518
713.32127,0.42839
711.83148,0.50223
710.34169,0.37919
708.85190,0.55278
707.36211,0.72648
705.87233,0.52580
704.38254,0.44630
702.89275,0.16581
701.40296,0.22709
699.91317,0.28849
698.42338,0.19097
696.93360,0.21668
695.44381,0.24866
693.95402,0.28486
692.46423,0.32117
690.97444,0.46840
689.48465,0.55008
687.99486,0.49848
686.50508,0.43674
685.01529,0.37511
683.52550,0.55574
682.03571,0.43072
680.54592,0.69775
679.05613,0.63452
677.56635,0.57139
676.07656,0.65203
674.58677,0.32852
673.09698,0.34576
671.60719,0.28309
670.11740,0.22052
668.62761,0.30993
667.13783,0.25169
665.64804,0.29514
664.15825,0.33871
662.66846,0.35468
661.17867,0.13684
659.68888,0.15919
658.19910,0.11805
656.70931,0.07701
655.21952,0.06482
653.72973,0.29488
652.23994,0.30138
650.75015,0.38494
649.26037,0.46861
647.77058,0.21484
646.28079,0.24846
644.79100,0.29656
643.30121,0.27808
641.81142,0.25971
640.32163,0.33482
638.83185,0.22331
637.34206,0.19399
635.85227,0.13811
634.36248,0.08234
632.87269,0.00000
631.38290,0.10598
629.89312,0.34751
628.40333,0.23004
626.91354,0.11268
625.42375,0.37302
623.93396,0.24152
622.44417,0.29995
620.95438,0.35848
619.46460,0.39970
617.97481,0.33636
616.48502,0.42089
614.99523,0.22542
613.50544,0.03007
612.01565,0.05543
610.52587,0.25942
609.03608,0.51277
607.54629,0.43176
606.05650,0.35085
604.56671,0.19208
603.07692,0.14013
601.58714,0.24732
600.09735,0.35463
598.60756,0.35842
597.11777,0.22278
595.62798,0.40942
594.13819,0.20732
592.64840,0.00532
591.15862,0.06507
589.66883,0.13110
588.17904,0.22596
586.68925,0.30862
585.19946,0.39140
583.70967,0.51122
582.21989,0.34592
580.73010,0.32232
579.24031,0.29884
577.75052,0.08463
576.26073,0.25836
574.77094,0.35013
573.28115,0.32401
571.79137,0.29801
570.30158,0.83951
568.81179,0.74704
567.32200,0.62698
565.83221,0.50703
564.34242,0.85608
562.85264,0.61631
561.36285,0.69677
559.87306,0.59266
558.38327,0.48866
556.89348,0.91626
555.40369,0.83505
553.91391,1.04638
552.42412,1.25782
550.93433,1.29597
549.44454,1.28088
547.95475,1.16125
546.46496,1.07559
544.97517,0.99004
543.48539,0.93025
541.99560,1.10041
540.50581,1.12601
539.01602,1.15171
537.52623,1.20524
536.03644,1.05777
534.54666,1.15872
533.05687,1.28440
531.56708,1.41019
530.07729,1.12568
528.58750,1.15731
527.09771,1.19828
525.60792,1.23936
524.11814,1.05175
522.62835,0.98122
521.13856,0.98057
519.64877,0.85178
518.15898,0.72310
516.66919,0.60992
515.17941,0.62613
513.68962,0.58295
512.19983,0.53988
510.71004,0.89091
509.22025,1.25232
507.73046,0.89973
506.24068,0.98638
504.75089,1.07315
503.26110,0.86043
501.77131,1.07260
500.28152,0.93910
498.79173,0.80572
497.30194,0.60371
495.81216,0.64601
494.32237,0.79204
492.83258,0.93819
491.34279,0.56220
489.85300,0.43257
488.36321,0.70935
486.87343,0.59637
485.38364,0.48349
483.89385,0.46306
482.40406,0.43249
480.91427,0.43179
479.42448,0.43119
477.93469,0.53844
476.44491,0.20256
474.95512,0.17563
473.46533,0.14881
471.97554,0.00000
470.48575,0.15237
468.99596,0.10374
467.50618,0.06037
466.01639,0.01710
464.52660,0.11656
463.03681,0.39876
461.54702,0.56309
460.05723,0.72753
458.56745,0.66327
457.07766,0.45959
455.58787,0.42942
454.09808,0.39936
452.60829,0.50792
451.11850,0.58582
449.62871,0.71923
448.13893,0.85276
446.64914,0.77504
445.15935,0.94777
443.66956,1.03649
442.17977,1.01861
440.68998,1.00085
439.20020,1.02834
437.71041,0.79123
436.22062,0.88563
434.73083,0.98015
433.24104,1.21740
431.75125,1.41782
430.26146,1.13510
428.77168,0.85249
427.28189,0.77827
425.79210,1.12073
424.30231,1.24066
422.81252,1.36070
421.32273,1.02222
419.83295,1.07784
418.34316,1.11305
416.85337,1.14838
415.36358,1.20639
413.87379,1.25015
412.38400,1.31454
410.89422,1.37904
409.40443,1.33079
407.91464,0.95228
406.42485,0.89399
404.93506,0.92304
403.44527,0.95219
401.95548,0.83678
400.46570,1.06007
398.97591,0.97157
397.48612,0.88317
395.99633,0.75591
394.50654,0.61643
393.01675,0.70999
391.52697,0.80364
390.03718,0.92102
388.54739,1.08775
387.05760,1.19816
385.56781,1.30868
384.07802,1.02020
382.58824,0.57792
381.09845,0.71238
379.60866,0.84695
378.11887,0.97548
376.62908,1.07539
375.13929,0.93430
373.64950,0.79331
372.15972,0.48726
370.66993,0.75861
369.18014,0.82180
367.69035,0.88510
366.20056,1.02752
364.71077,0.95458
363.22099,0.98128
361.73120,1.00809
360.24141,0.67283
358.75162,0.62907
357.26183,0.69623
355.77204,0.76350
354.28225,0.74470
352.79247,0.97021
351.30268,0.81414
349.81289,0.65819
348.32310,0.66652
346.83331,0.89209
345.34352,0.70326
343.85374,0.51455
342.36395,0.69942
340.87416,0.46373
339.38437,0.36564
337.89458,0.26767
336.40479,0.44683
334.91501,0.24852
333.42522,0.12421
331.93543,0.00000
330.44564,0.02806
328.95585,0.72930
327.46606,0.70321
325.97627,0.67722
324.48649,0.64876
322.99670,0.27773
321.50691,0.18793
320.01712,0.09825
318.52733,0.24467
317.03754,0.21267
315.54776,0.30185
314.05797,0.39114
312.56818,0.28560
311.07839,0.37922
309.58860,0.21337
308.09881,0.04763
306.60902,0.00000
305.11924,0.07760
303.62945,0.17890
302.13966,0.02708
300.64987,0.23921
299.16008,0.00000
