1778.52000,0.05996
1777.03021,0.03674
1775.54042,0.06750
1774.05063,0.01935
1772.56085,0.01354
1771.07106,0.03905
1769.58127,0.12894
1768.09148,0.11910
1766.60169,0.19263
1765.11190,0.15540
1763.62212,0.15561
1762.13233,0.14305
1760.64254,0.16180
1759.15275,0.17758
1757.66296,0.21916
1756.17317,0.01894
1754.68339,0.01354
1753.19360,0.09258
1751.70381,0.16864
1750.21402,0.05004
1748.72423,0.12443
1747.23444,0.08317
1745.74465,0.11732
1744.25487,0.11542
1742.76508,0.09523
1741.27529,0.15290
1739.78550,0.15248
1738.29571,0.13745
1736.80592,0.15068
1735.31614,0.13153
1733.82635,0.06225
1732.33656,0.04756
1730.84677,0.11992
1729.35698,0.15500
1727.86719,0.03095
1726.37740,0.01354
1724.88762,0.06503
1723.39783,0.09823
1721.90804,0.09233
1720.41825,0.15326
1718.92846,0.12058
1717.43867,0.08921
1715.94889,0.13692
1714.45910,0.15962
1712.96931,0.10952
1711.47952,0.14402
1709.98973,0.20371
1708.49994,0.11835
1707.01016,0.11881
1705.52037,0.11935
1704.03058,0.15122
1702.54079,0.16847
1701.05100,0.15947
1699.56121,0.11749
1698.07142,0.12765
1696.58164,0.15014
1695.09185,0.12985
1693.60206,0.13843
1692.11227,0.23099
1690.62248,0.26300
1689.13269,0.26633
1687.64291,0.24156
1686.15312,0.21137
1684.66333,0.20515
1683.17354,0.26699
1681.68375,0.24441
1680.19396,0.34194
1678.70417,0.31279
1677.21439,0.14287
1675.72460,0.09736
1674.23481,0.08500
1672.74502,0.22337
1671.25523,0.27855
1669.76544,0.22358
1668.27566,0.25871
1666.78587,0.22290
1665.29608,0.24902
1663.80629,0.26726
1662.31650,0.35724
1660.82671,0.26910
1659.33693,0.31394
1657.84714,0.13166
1656.35735,0.15339
1654.86756,0.01354
1653.37777,0.13083
1651.88798,0.10369
1650.39819,0.15379
1648.90841,0.17520
1647.41862,0.09380
1645.92883,0.10834
1644.43904,0.12296
1642.94925,0.21635
1641.45946,0.23022
1639.96968,0.24296
1638.47989,0.22025
1636.99010,0.30358
1635.50031,0.27493
1634.01052,0.19491
1632.52073,0.17317
1631.03094,0.19621
1629.54116,0.08277
1628.05137,0.04474
1626.56158,0.01354
1625.07179,0.05108
1623.58200,0.20322
1622.09221,0.18336
1620.60243,0.17278
1619.11264,0.17453
1617.62285,0.20331
1616.13306,0.24259
1614.64327,0.25623
1613.15348,0.21729
1611.66370,0.13802
1610.17391,0.20948
1608.68412,0.27368
1607.19433,0.32816
1605.70454,0.24862
1604.21475,0.20621
1602.72496,0.16389
1601.23518,0.15196
1599.74539,0.22035
1598.25560,0.19941
1596.76581,0.18529
1595.27602,0.16452
1593.78623,0.10281
1592.29645,0.03934
1590.80666,0.12906
1589.31687,0.12333
1587.82708,0.10422
1586.33729,0.14275
1584.84750,0.15442
1583.35771,0.25743
1581.86793,0.24845
1580.37814,0.23405
1578.88835,0.24300
1577.39856,0.17978
1575.90877,0.10010
1574.41898,0.10809
1572.92920,0.03165
1571.43941,0.11390
1569.94962,0.11785
1568.45983,0.12189
1566.97004,0.10887
1565.48025,0.06470
1563.99047,0.10084
1562.50068,0.05010
1561.01089,0.01354
1559.52110,0.10596
1558.03131,0.19051
1556.54152,0.18941
1555.05173,0.10755
1553.56195,0.01354
1552.07216,0.08734
1550.58237,0.17225
1549.09258,0.21192
1547.60279,0.15370
1546.11300,0.09251
1544.62322,0.12570
1543.13343,0.20430
1541.64364,0.13785
1540.15385,0.12904
1538.66406,0.12033
1537.17427,0.16987
1535.68448,0.06089
1534.19470,0.10448
1532.70491,0.01650
1531.21512,0.03944
1529.72533,0.00000
1528.23554,0.04516
1526.74575,0.14858
1525.25597,0.19574
1523.76618,0.10643
1522.27639,0.13785
1520.78660,0.04136
1519.29681,0.01354
1517.80702,0.05137
1516.31724,0.10888
1514.82745,0.05503
1513.33766,0.08607
1511.84787,0.11720
1510.35808,0.11871
1508.86829,0.08786
1507.37850,0.04116
1505.88872,0.01354
1504.39893,0.02294
1502.90914,0.02569
1501.41935,0.07506
1499.92956,0.02409
1498.43977,0.11099
1496.94999,0.18696
1495.46020,0.23361
1493.97041,0.27361
1492.48062,0.32044
1490.99083,0.45125
1489.50104,0.53498
1488.01125,0.44428
1486.52147,0.35366
1485.03168,0.38866
1483.54189,0.46111
1482.05210,0.54221
1480.56231,0.64177
1479.07252,0.69671
1477.58274,0.81849
1476.09295,0.91157
1474.60316,0.93248
1473.11337,1.03369
1471.62358,1.05905
1470.13379,1.10164
1468.64401,1.04940
1467.15422,0.93417
1465.66443,0.87628
1464.17464,0.81848
1462.68485,0.72616
1461.19506,0.62597
1459.70527,0.51912
1458.21549,0.43196
1456.72570,0.46736
1455.23591,0.47100
1453.74612,0.49310
1452.25633,0.39281
1450.76654,0.27423
1449.27676,0.20227
1447.78697,0.19654
1446.29718,0.19641
1444.80739,0.18595
1443.31760,0.17558
1441.82781,0.13161
1440.33802,0.06201
1438.84824,0.09292
1437.35845,0.09514
1435.86866,0.01354
1434.37887,0.07847
1432.88908,0.08714
1431.39929,0.09038
1429.90951,0.09922
1428.41972,0.05365
1426.92993,0.10430
1425.44014,0.19240
1423.95035,0.12167
1422.46056,0.05102
1420.97078,0.08487
1419.48099,0.23332
1417.99120,0.21713
1416.50141,0.15692
1415.01162,0.06741
1413.52183,0.10291
1412.03204,0.21199
1410.54226,0.24215
1409.05247,0.32138
1407.56268,0.12636
1406.07289,0.24189
1404.58310,0.26811
1403.09331,0.29441
1401.60353,0.27303
1400.11374,0.26214
1398.62395,0.21521
1397.13416,0.21246
1395.64437,0.26307
1394.15458,0.40991
1392.66479,0.53541
1391.17501,0.43073
1389.68522,0.47065
1388.19543,0.43351
1386.70564,0.44880
1385.21585,0.46419
1383.72606,0.45792
1382.23628,0.52889
1380.74649,0.48298
1379.25670,0.42920
1377.76691,0.36571
1376.27712,0.49214
1374.78733,0.48454
1373.29755,0.53705
1371.80776,0.54003
1370.31797,0.81929
1368.82818,0.87144
1367.33839,0.92367
1365.84860,0.93373
1364.35881,0.92857
1362.86903,0.99637
1361.37924,1.03118
1359.88945,1.09976
1358.39966,0.98655
1356.90987,0.90710
1355.42008,0.90490
1353.93030,0.96219
1352.44051,0.93444
1350.95072,0.90677
1349.46093,0.74263
1347.97114,0.71942
1346.48135,0.60383
1344.99156,0.58692
1343.50178,0.48925
1342.01199,0.47741
1340.52220,0.55567
1339.03241,0.52992
1337.54262,0.48465
1336.05283,0.45079
1334.56305,0.41702
1333.07326,0.36956
1331.58347,0.39935
1330.09368,0.30613
1328.60389,0.35200
1327.11410,0.33060
1325.62432,0.32092
1324.13453,0.19987
1322.64474,0.14321
1321.15495,0.11481
1319.66516,0.08710
1318.17537,0.05947
1316.68558,0.04969
1315.19580,0.07307
1313.70601,0.16389
1312.21622,0.10047
1310.72643,0.04511
1309.23664,0.11292
1307.74685,0.16182
1306.25707,0.18571
1304.76728,0.17753
1303.27749,0.16944
1301.78770,0.01354
1300.29791,0.07158
1298.80812,0.11440
1297.31834,0.11872
1295.82855,0.14333
1294.33876,0.23601
1292.84897,0.37286
1291.35918,0.35426
1289.86939,0.34033
1288.37960,0.32648
1286.88982,0.19912
1285.40003,0.24883
1283.91024,0.23739
1282.42045,0.25297
1280.93066,0.27538
1279.44087,0.36279
1277.95109,0.32535
1276.46130,0.26901
1274.97151,0.27308
1273.48172,0.27724
1271.99193,0.33139
1270.50214,0.35562
1269.01235,0.34809
1267.52257,0.45455
1266.03278,0.47107
1264.54299,0.41114
1263.05320,0.52214
1261.56341,0.51871
1260.07362,0.51537
1258.58384,0.44720
1257.09405,0.40238
1255.60426,0.42869
1254.11447,0.41589
1252.62468,0.33642
1251.13489,0.29072
1249.64511,0.42699
1248.15532,0.39310
1246.66553,0.33755
1245.17574,0.28209
1243.68595,0.24294
1242.19616,0.29451
1240.70637,0.31555
1239.21659,0.15418
1237.72680,0.08169
1236.23701,0.25302
1234.74722,0.21132
1233.25743,0.21962
1231.76764,0.22800
1230.27786,0.23494
1228.78807,0.22726
1227.29828,0.22335
1225.80849,0.25504
1224.31870,0.19250
1222.82891,0.08351
1221.33912,0.05912
1219.84934,0.11870
1218.35955,0.17838
1216.86976,0.22711
1215.37997,0.14672
1213.89018,0.13622
1212.40039,0.27401
1210.91061,0.26307
1209.42082,0.22466
1207.93103,0.20992
1206.44124,0.19525
1204.95145,0.09647
1203.46166,0.05228
1201.97188,0.03757
1200.48209,0.16624
1198.99230,0.16272
1197.50251,0.01354
1196.01272,0.02204
1194.52293,0.06124
1193.03314,0.10053
1191.54336,0.21217
1190.05357,0.31103
1188.56378,0.27096
1187.07399,0.10605
1185.58420,0.01533
1184.09441,0.02084
1182.60463,0.13881
1181.11484,0.25687
1179.62505,0.21058
1178.13526,0.25930
1176.64547,0.26156
1175.15568,0.21859
1173.66589,0.11814
1172.17611,0.16476
1170.68632,0.15236
1169.19653,0.14004
1167.70674,0.36512
1166.21695,0.29633
1164.72716,0.29744
1163.23738,0.11981
1161.74759,0.11742
1160.25780,0.19655
1158.76801,0.25373
1157.27822,0.31099
1155.78843,0.27587
1154.29865,0.22920
1152.80886,0.36878
1151.31907,0.50844
1149.82928,0.50918
1148.33949,0.53634
1146.84970,0.47600
1145.35991,0.41576
1143.87013,0.41745
1142.38034,0.40024
1140.89055,0.32004
1139.40076,0.43100
1137.91097,0.55857
1136.42118,0.61703
1134.93140,0.59412
1133.44161,0.57130
1131.95182,0.64594
1130.46203,0.65330
1128.97224,0.75995
1127.48245,0.81953
1125.99266,0.84980
1124.50288,0.91078
1123.01309,0.89927
1121.52330,0.88785
1120.03351,0.86642
1118.54372,0.85302
1117.05393,0.71173
1115.56415,0.71688
1114.07436,0.76437
1112.58457,0.74488
1111.09478,0.72549
1109.60499,0.76099
1108.11520,0.79657
1106.62542,0.90021
1105.13563,0.79696
1103.64584,0.70603
1102.15605,0.56865
1100.66626,0.55812
1099.17647,0.54767
1097.68668,0.49996
1096.19690,0.41436
1094.70711,0.48194
1093.21732,0.61575
1091.72753,0.75638
1090.23774,0.79604
1088.74795,0.83580
1087.25817,0.99200
1085.76838,0.94374
1084.27859,1.01314
1082.78880,0.94852
1081.29901,0.95686
1079.80922,0.86117
1078.31943,0.91684
1076.82965,0.97258
1075.33986,1.11109
1073.85007,1.17681
1072.36028,1.10604
1070.87049,1.12294
1069.38070,1.04623
1067.89092,1.01828
1066.40113,0.99042
1064.91134,0.99051
1063.42155,1.07459
1061.93176,1.09689
1060.44197,1.04396
1058.95219,0.86068
1057.46240,0.83976
1055.97261,0.81893
1054.48282,0.84534
1052.99303,0.92511
1051.50324,0.76062
1050.01345,0.64031
1048.52367,0.55928
1047.03388,0.51783
1045.54409,0.47647
1044.05430,0.48388
1042.56451,0.30888
1041.07472,0.18847
1039.58494,0.18450
1038.09515,0.29391
1036.60536,0.27052
1035.11557,0.24721
1033.62578,0.18907
1032.13599,0.14756
1030.64620,0.11165
1029.15642,0.19768
1027.66663,0.21124
1026.17684,0.22487
1024.68705,0.32097
1023.19726,0.61617
1021.70747,0.78530
1020.21769,0.94840
1018.72790,1.21875
1017.23811,1.36334
1015.74832,1.50802
1014.25853,1.58695
1012.76874,1.78048
1011.27896,1.88101
1009.78917,2.00000
1008.29938,1.91454
1006.80959,1.85488
1005.31980,1.79531
1003.83001,1.82646
1002.34022,1.92260
1000.85044,1.70713
999.36065,1.63258
997.87086,1.59059
996.38107,1.54867
994.89128,1.38865
993.40149,1.39652
991.91171,1.44120
990.42192,1.12161
988.93213,1.01705
987.44234,0.97411
985.95255,0.93127
984.46276,0.87411
982.97297,0.87951
981.48319,0.74108
979.99340,0.56354
978.50361,0.53858
977.01382,0.51370
975.52403,0.65486
974.03424,0.60871
972.54446,0.53755
971.05467,0.37154
969.56488,0.39057
968.07509,0.27526
966.58530,0.16003
965.09551,0.04704
963.60573,0.12764
962.11594,0.05156
960.62615,0.03864
959.13636,0.08062
957.64657,0.12268
956.15678,0.23127
954.66699,0.01354
953.17721,0.07967
951.68742,0.07668
950.19763,0.11971
948.70784,0.16282
947.21805,0.12824
945.72826,0.09130
944.23848,0.10956
942.74869,0.14812
941.25890,0.26208
939.76911,0.31153
938.27932,0.36105
936.78953,0.35157
935.29974,0.42178
933.80996,0.55638
932.32017,0.61391
930.83038,0.58762
929.34059,0.56142
927.85080,0.61614
926.36101,0.71013
924.87123,0.71542
923.38144,0.72018
921.89165,0.62979
920.40186,0.53949
918.91207,0.65045
917.42228,0.82457
915.93250,0.79424
914.44271,0.77501
912.95292,0.74026
911.46313,0.70558
909.97334,0.53903
908.48355,0.43870
906.99376,0.29129
905.50398,0.01354
904.01419,0.04945
902.52440,0.08545
901.03461,0.12276
899.54482,0.25140
898.05503,0.21601
896.56525,0.22295
895.07546,0.26183
893.58567,0.30079
892.09588,0.32146
890.60609,0.34896
889.11630,0.33612
887.62651,0.61058
886.13673,0.66742
884.64694,0.72435
883.15715,0.63959
881.66736,0.71904
880.17757,0.72203
878.68778,0.84145
877.19800,0.96096
875.70821,0.89990
874.21842,0.94120
872.72863,1.07689
871.23884,1.24083
869.74905,1.24319
868.25927,1.24563
866.76948,1.40003
865.27969,1.37264
863.78990,1.48312
862.30011,1.33648
860.81032,1.37579
859.32053,1.41518
857.83075,1.43904
856.34096,1.53831
854.85117,1.51519
853.36138,1.44623
851.87159,1.24568
850.38180,1.04522
848.89202,0.86690
847.40223,0.93422
845.91244,0.91713
844.42265,0.84653
842.93286,0.77602
841.44307,0.44808
839.95329,0.49379
838.46350,0.70676
836.97371,0.64976
835.48392,0.60570
833.99413,0.56173
832.50434,0.29860
831.01455,0.16846
829.52477,0.24293
828.03498,0.35362
826.54519,0.40408
825.05540,0.45462
823.56561,0.43145
822.07582,0.32631
820.58604,0.20043
819.09625,0.29082
817.60646,0.38128
816.11667,0.22872
814.62688,0.14360
813.13709,0.08122
811.64730,0.12121
810.15752,0.08870
808.66773,0.05628
807.17794,0.13939
805.68815,0.10929
804.19836,0.05232
802.70857,0.13354
801.21879,0.21484
799.72900,0.34124
798.23921,0.25277
796.74942,0.14357
795.25963,0.14254
793.76984,0.14160
792.28006,0.17105
790.79027,0.22692
789.30048,0.21552
787.81069,0.20848
786.32090,0.18715
784.83111,0.16589
783.34132,0.23383
781.85154,0.14201
780.36175,0.01354
778.87196,0.01902
777.38217,0.02459
775.89238,0.14354
774.40259,0.17500
772.91281,0.37312
771.42302,0.29146
769.93323,0.20988
768.44344,0.08553
766.95365,0.10149
765.46386,0.14939
763.97407,0.09694
762.48429,0.14562
760.99450,0.19438
759.50471,0.33754
758.01492,0.21561
756.52513,0.12134
755.03534,0.08899
753.54556,0.05674
752.05577,0.01354
750.56598,0.02472
749.07619,0.35321
747.58640,0.32874
746.09661,0.30436
744.60683,0.11625
743.11704,0.18542
741.62725,0.30858
740.13746,0.28086
738.64767,0.25323
737.15788,0.10106
735.66809,0.05492
734.17831,0.10379
732.68852,0.11171
731.19873,0.11972
729.70894,0.19579
728.21915,0.18437
726.72936,0.23060
725.23958,0.10729
723.74979,0.08602
722.26000,0.06484
720.77021,0.07406
719.28042,0.17828
717.79063,0.35424
716.30084,0.27522
714.81106,0.19629
713.32127,0.18634
711.83148,0.21505
710.34169,0.18200
708.85190,0.13893
707.36211,0.09594
705.87233,0.16786
704.38254,0.12168
702.89275,0.27889
701.40296,0.24788
699.91317,0.21696
698.42338,0.20786
696.93360,0.27050
695.44381,0.29770
693.95402,0.34520
692.46423,0.39278
690.97444,0.31430
689.48465,0.42329
687.99486,0.46807
686.50508,0.45904
685.01529,0.45009
683.52550,0.50921
682.03571,0.51759
680.54592,0.46909
679.05613,0.40752
677.56635,0.34603
676.07656,0.36210
674.58677,0.35436
673.09698,0.33202
671.60719,0.30425
670.11740,0.27656
668.62761,0.22814
667.13783,0.17429
665.64804,0.13002
664.15825,0.08583
662.66846,0.12104
661.17867,0.13612
659.68888,0.13352
658.19910,0.13500
656.70931,0.13655
655.21952,0.16545
653.72973,0.24158
652.23994,0.34781
650.75015,0.35767
649.26037,0.36762
647.77058,0.14280
646.28079,0.01849
644.79100,0.05513
643.30121,0.03429
641.81142,0.01354
640.32163,0.03409
638.83185,0.09638
637.34206,0.08403
635.85227,0.05769
634.36248,0.03143
632.87269,0.12406
631.38290,0.18800
629.89312,0.16750
628.40333,0.10423
626.91354,0.04104
625.42375,0.07531
623.93396,0.31298
622.44417,0.27638
620.95438,0.23987
619.46460,0.14832
617.97481,0.16159
616.48502,0.18596
614.99523,0.20122
613.50544,0.21658
612.01565,0.21365
610.52587,0.13731
609.03608,0.22090
607.54629,0.19587
606.05650,0.17093
604.56671,0.19414
603.07692,0.30746
601.58714,0.21358
600.09735,0.11978
598.60756,0.15925
597.11777,0.32436
595.62798,0.23663
594.13819,0.16736
592.64840,0.09817
591.15862,0.04010
589.66883,0.17133
588.17904,0.18753
586.68925,0.25861
585.19946,0.32979
583.70967,0.33399
582.21989,0.31623
580.73010,0.33285
579.24031,0.34955
577.75052,0.20590
576.26073,0.30667
574.77094,0.21095
573.28115,0.26933
571.79137,0.32780
570.30158,0.40748
568.81179,0.54665
567.32200,0.51872
565.83221,0.49088
564.34242,0.59784
562.85264,0.66142
561.36285,0.62587
559.87306,0.64674
558.38327,0.66771
556.89348,0.78612
555.40369,1.08467
553.91391,1.11323
552.42412,1.14189
550.93433,1.34515
549.44454,1.24905
547.95475,1.21121
546.46496,1.16763
544.97517,1.12414
543.48539,1.12697
541.99560,1.05640
540.50581,1.10380
539.01602,1.15129
537.52623,1.12139
536.03644,1.13812
534.54666,1.26455
533.05687,1.29003
531.56708,1.31559
530.07729,1.37859
528.58750,1.25183
527.09771,1.14935
525.60792,1.04696
524.11814,1.03804
522.62835,0.93857
521.13856,0.78346
519.64877,0.75336
518.15898,0.72335
516.66919,0.87959
515.17941,0.82342
513.68962,0.87542
512.19983,0.92750
510.71004,0.91812
509.22025,0.94619
507.73046,0.83287
506.24068,0.86387
504.75089,0.89494
503.26110,0.85721
501.77131,0.76139
500.28152,0.80589
498.79173,0.85047
497.30194,0.65814
495.81216,0.73597
494.32237,0.83256
492.83258,0.92923
491.34279,0.71214
489.85300,0.62496
488.36321,0.76690
486.87343,0.69887
485.38364,0.63093
483.89385,0.46019
482.40406,0.32812
480.91427,0.35965
479.42448,0.39126
477.93469,0.40825
476.44491,0.13874
474.95512,0.12988
473.46533,0.12110
471.97554,0.07782
470.48575,0.05788
468.99596,0.01354
467.50618,0.02433
466.01639,0.03520
464.52660,0.11413
463.03681,0.26541
461.54702,0.33747
460.05723,0.40962
458.56745,0.10308
457.07766,0.32452
455.58787,0.27138
454.09808,0.21833
452.60829,0.31937
451.11850,0.45113
449.62871,0.57103
448.13893,0.69101
446.64914,0.91733
445.15935,0.93001
443.66956,0.79763
442.17977,0.69658
440.68998,0.59561
439.20020,0.53514
437.71041,0.62908
436.22062,0.71515
434.73083,0.80130
433.24104,1.00450
431.75125,0.92303
430.26146,0.89522
428.77168,0.86750
427.28189,0.77220
425.79210,0.99298
424.30231,0.97409
422.81252,0.95528
421.32273,0.94912
419.83295,0.87751
418.34316,0.92051
416.85337,0.96359
415.36358,0.88673
413.87379,0.87977
412.38400,0.90045
410.89422,0.92122
409.40443,0.89124
407.91464,0.57107
406.42485,0.52473
404.93506,0.47205
403.44527,0.41944
401.95548,0.37826
400.46570,0.46209
398.97591,0.39198
397.48612,0.32196
395.99633,0.19600
394.50654,0.14727
393.01675,0.16845
391.52697,0.18971
390.03718,0.44561
388.54739,0.61585
387.05760,0.54766
385.56781,0.47954
384.07802,0.27220
382.58824,0.19477
381.09845,0.14957
379.60866,0.10446
378.11887,0.19814
376.62908,0.15044
375.13929,0.16897
373.64950,0.18758
372.15972,0.27854
370.66993,0.25078
369.18014,0.28466
367.69035,0.31861
366.20056,0.33765
364.71077,0.33963
363.22099,0.38180
361.73120,0.42407
360.24141,0.23401
358.75162,0.10589
357.26183,0.11593
355.77204,0.12605
354.28225,0.27344
352.79247,0.19433
351.30268,0.15756
349.81289,0.12087
348.32310,0.13510
346.83331,0.21982
345.34352,0.16378
343.85374,0.10782
342.36395,0.08808
340.87416,0.21724
339.38437,0.13245
337.89458,0.04775
336.40479,0.06020
334.91501,0.20317
333.42522,0.10831
331.93543,0.01354
330.44564,0.09423
328.95585,0.29503
327.46606,0.34374
325.97627,0.39253
324.48649,0.43314
322.99670,0.17621
321.50691,0.20264
320.01712,0.22915
318.52733,0.19635
317.03754,0.15077
315.54776,0.12517
314.05797,0.09967
312.56818,0.31093
311.07839,0.30856
309.58860,0.31087
308.09881,0.31326
306.60902,0.20521
305.11924,0.18970
303.62945,0.15928
302.13966,0.01354
300.64987,0.01503
299.16008,0.01354
