1778.52000,0.06997
1777.03021,0.13589
1775.54042,0.07736
1774.05063,0.00898
1772.56085,0.09521
1771.07106,0.11378
1769.58127,0.11354
1768.09148,0.06658
1766.60169,0.18719
1765.11190,0.17934
1763.62212,0.23839
1762.13233,0.29657
1760.64254,0.31101
1759.15275,0.24784
1757.66296,0.18977
1756.17317,0.07602
1754.68339,0.15075
1753.19360,0.20866
1751.70381,0.16604
1750.21402,0.12951
1748.72423,0.18380
1747.23444,0.00898
1745.74465,0.05162
1744.25487,0.17610
1742.76508,0.12828
1741.27529,0.35067
1739.78550,0.25227
1738.29571,0.24070
1736.80592,0.16147
1735.31614,0.16111
1733.82635,0.09907
1732.33656,0.07005
1730.84677,0.11988
1729.35698,0.14292
1727.86719,0.03254
1726.37740,0.00898
1724.88762,0.07282
1723.39783,0.08296
1721.90804,0.22976
1720.41825,0.18632
1718.92846,0.20879
1717.43867,0.12872
1715.94889,0.21521
1714.45910,0.24900
1712.96931,0.23906
1711.47952,0.22825
1709.98973,0.32121
1708.49994,0.30168
1707.01016,0.22146
1705.52037,0.14137
1704.03058,0.06938
1702.54079,0.08122
1701.05100,0.06828
1699.56121,0.14814
1698.07142,0.27497
1696.58164,0.10591
1695.09185,0.30873
1693.60206,0.28244
1692.11227,0.36391
1690.62248,0.27806
1689.13269,0.30396
1687.64291,0.20739
1686.15312,0.23653
1684.66333,0.28073
1683.17354,0.34400
1681.68375,0.43330
1680.19396,0.37422
1678.70417,0.34915
1677.21439,0.21556
1675.72460,0.03725
1674.23481,0.05441
1672.74502,0.09162
1671.25523,0.23459
1669.76544,0.31590
1668.27566,0.40430
1666.78587,0.12507
1665.29608,0.34029
1663.80629,0.34235
1662.31650,0.54187
1660.82671,0.55116
1659.33693,0.50076
1657.84714,0.35680
1656.35735,0.19004
1654.86756,0.19085
1653.37777,0.16386
1651.88798,0.15693
1650.39819,0.31856
1648.90841,0.27899
1647.41862,0.22957
1645.92883,0.16283
1644.43904,0.09622
1642.94925,0.04517
1641.45946,0.14474
1639.96968,0.40290
1638.47989,0.33827
1636.99010,0.52292
1635.50031,0.46651
1634.01052,0.45207
1632.52073,0.37098
1631.03094,0.33387
1629.54116,0.09057
1628.05137,0.03178
1626.56158,0.00898
1625.07179,0.04552
1623.58200,0.23467
1622.09221,0.33026
1620.60243,0.42198
1619.11264,0.42413
1617.62285,0.30082
1616.13306,0.41384
1614.64327,0.26485
1613.15348,0.28443
1611.66370,0.33502
1610.17391,0.41465
1608.68412,0.38675
1607.19433,0.41379
1605.70454,0.30740
1604.21475,0.31276
1602.72496,0.31824
1601.23518,0.40457
1599.74539,0.46412
1598.25560,0.40119
1596.76581,0.24271
1595.27602,0.12422
1593.78623,0.11250
1592.29645,0.16866
1590.80666,0.20103
1589.31687,0.11991
1587.82708,0.25019
1586.33729,0.23509
1584.84750,0.38157
1583.35771,0.18133
1581.86793,0.21443
1580.37814,0.30446
1578.88835,0.38067
1577.39856,0.35334
1575.90877,0.22049
1574.41898,0.16051
1572.92920,0.00399
1571.43941,0.21335
1569.94962,0.15076
1568.45983,0.08828
1566.97004,0.00898
1565.48025,0.04479
1563.99047,0.23520
1562.50068,0.28819
1561.01089,0.31240
1559.52110,0.25201
1558.03131,0.19973
1556.54152,0.18344
1555.05173,0.12243
1553.56195,0.10339
1552.07216,0.16222
1550.58237,0.24210
1549.09258,0.27426
1547.60279,0.16503
1546.11300,0.21139
1544.62322,0.18710
1543.13343,0.42606
1541.64364,0.31532
1540.15385,0.28841
1538.66406,0.26163
1537.17427,0.25690
1535.68448,0.25528
1534.19470,0.13916
1532.70491,0.00623
1531.21512,0.00898
1529.72533,0.09226
1528.23554,0.28329
1526.74575,0.25219
1525.25597,0.36074
1523.76618,0.40165
1522.27639,0.49450
1520.78660,0.27951
1519.29681,0.26497
1517.80702,0.34822
1516.31724,0.25219
1514.82745,0.09549
1513.33766,0.16865
1511.84787,0.24192
1510.35808,0.24605
1508.86829,0.23934
1507.37850,0.10418
1505.88872,0.09572
1504.39893,0.13821
1502.90914,0.03033
1501.41935,0.04416
1499.92956,0.20960
1498.43977,0.21570
1496.94999,0.28073
1495.46020,0.38874
1493.97041,0.38624
1492.48062,0.44963
1490.99083,0.45734
1489.50104,0.54291
1488.01125,0.47811
1486.52147,0.41343
1485.03168,0.21233
1483.54189,0.33028
1482.05210,0.55599
1480.56231,0.64827
1479.07252,0.63503
1477.58274,0.70264
1476.09295,0.81821
1474.60316,0.87211
1473.11337,0.96202
1471.62358,1.25635
1470.13379,1.14916
1468.64401,1.20953
1467.15422,0.86538
1465.66443,0.89709
1464.17464,0.92892
1462.68485,0.73961
1461.19506,0.71887
1459.70527,0.73512
1458.21549,0.61296
1456.72570,0.63643
1455.23591,0.60620
1453.74612,0.49637
1452.25633,0.45542
1450.76654,0.32889
1449.27676,0.41277
1447.78697,0.31139
1446.29718,0.15632
1444.80739,0.21316
1443.31760,0.27012
1441.82781,0.37754
1440.33802,0.26381
1438.84824,0.16517
1437.35845,0.14438
1435.86866,0.21241
1434.37887,0.30250
1432.88908,0.24321
1431.39929,0.22590
1429.90951,0.24957
1428.41972,0.41091
1426.92993,0.42984
1425.44014,0.19375
1423.95035,0.10131
1422.46056,0.00898
1420.97078,0.28335
1419.48099,0.40535
1417.99120,0.37099
1416.50141,0.34075
1415.01162,0.42125
1413.52183,0.32946
1412.03204,0.31353
1410.54226,0.33959
1409.05247,0.39666
1407.56268,0.32329
1406.07289,0.35071
1404.58310,0.39071
1403.09331,0.43083
1401.60353,0.43270
1400.11374,0.53237
1398.62395,0.44777
1397.13416,0.41214
1395.64437,0.50220
1394.15458,0.52362
1392.66479,0.75246
1391.17501,0.63559
1389.68522,0.35937
1388.19543,0.47596
1386.70564,0.59217
1385.21585,0.70850
1383.72606,0.60520
1382.23628,0.68141
1380.74649,0.60825
1379.25670,0.50431
1377.76691,0.57192
1376.27712,0.72038
1374.78733,0.77827
1373.29755,0.65588
1371.80776,0.77182
1370.31797,0.91578
1368.82818,1.00555
1367.33839,1.09544
1365.84860,1.10423
1364.35881,1.01447
1362.86903,0.99559
1361.37924,1.13032
1359.88945,1.09973
1358.39966,1.10913
1356.90987,1.29007
1355.42008,1.09041
1353.93030,1.00250
1352.44051,0.95707
1350.95072,0.91176
1349.46093,0.86707
1347.97114,0.93214
1346.48135,0.79002
1344.99156,0.71979
1343.50178,0.54104
1342.01199,0.62055
1340.52220,0.44603
1339.03241,0.49688
1337.54262,0.65848
1336.05283,0.60642
1334.56305,0.55448
1333.07326,0.57193
1331.58347,0.60246
1330.09368,0.62214
1328.60389,0.56621
1327.11410,0.57916
1325.62432,0.57629
1324.13453,0.52571
1322.64474,0.18820
1321.15495,0.37905
1319.66516,0.31936
1318.17537,0.25980
1316.68558,0.24869
1315.19580,0.21279
1313.70601,0.18299
1312.21622,0.04667
1310.72643,0.13771
1309.23664,0.34747
1307.74685,0.33909
1306.25707,0.39163
1304.76728,0.30077
1303.27749,0.21003
1301.78770,0.16326
1300.29791,0.00898
1298.80812,0.12572
1297.31834,0.20371
1295.82855,0.29178
1294.33876,0.38297
1292.84897,0.53807
1291.35918,0.48000
1289.86939,0.42804
1288.37960,0.37620
1286.88982,0.33145
1285.40003,0.37454
1283.91024,0.31509
1282.42045,0.47203
1280.93066,0.35303
1279.44087,0.50125
1277.95109,0.44827
1276.46130,0.31169
1274.97151,0.30231
1273.48172,0.29305
1271.99193,0.40301
1270.50214,0.49715
1269.01235,0.71698
1267.52257,0.61403
1266.03278,0.48329
1264.54299,0.58688
1263.05320,0.56402
1261.56341,0.48498
1260.07362,0.40605
1258.58384,0.67658
1257.09405,0.55753
1255.60426,0.64392
1254.11447,0.69455
1252.62468,0.53202
1251.13489,0.34170
1249.64511,0.46545
1248.15532,0.43983
1246.66553,0.30369
1245.17574,0.16769
1243.68595,0.15538
1242.19616,0.32659
1240.70637,0.34343
1239.21659,0.25775
1237.72680,0.30174
1236.23701,0.49636
1234.74722,0.58844
1233.25743,0.44743
1231.76764,0.30654
1230.27786,0.33321
1228.78807,0.42777
1227.29828,0.62113
1225.80849,0.43089
1224.31870,0.24377
1222.82891,0.08965
1221.33912,0.07021
1219.84934,0.12116
1218.35955,0.17222
1216.86976,0.17607
1215.37997,0.26276
1213.89018,0.29177
1212.40039,0.52821
1210.91061,0.56244
1209.42082,0.54198
1207.93103,0.46035
1206.44124,0.37884
1204.95145,0.24912
1203.46166,0.15141
1201.97188,0.28106
1200.48209,0.37694
1198.99230,0.40319
1197.50251,0.27806
1196.01272,0.13710
1194.52293,0.19461
1193.03314,0.25224
1191.54336,0.54719
1190.05357,0.52433
1188.56378,0.44877
1187.07399,0.34443
1185.58420,0.00898
1184.09441,0.22680
1182.60463,0.30022
1181.11484,0.37377
1179.62505,0.45641
1178.13526,0.39166
1176.64547,0.36591
1175.15568,0.28645
1173.66589,0.20414
1172.17611,0.31629
1170.68632,0.35630
1169.19653,0.39644
1167.70674,0.65347
1166.21695,0.70830
1164.72716,0.38851
1163.23738,0.33196
1161.74759,0.32637
1160.25780,0.25013
1158.76801,0.22783
1157.27822,0.20566
1155.78843,0.41284
1154.29865,0.47562
1152.80886,0.46179
1151.31907,0.58063
1149.82928,0.49528
1148.33949,0.75390
1146.84970,0.71613
1145.35991,0.67849
1143.87013,0.45808
1142.38034,0.46204
1140.89055,0.39835
1139.40076,0.51119
1137.91097,0.58828
1136.42118,0.69040
1134.93140,0.74431
1133.44161,0.79834
1131.95182,0.70747
1130.46203,0.74131
1128.97224,0.94371
1127.48245,1.03261
1125.99266,0.97313
1124.50288,1.09617
1123.01309,1.06235
1121.52330,1.02865
1120.03351,0.83312
1118.54372,0.80913
1117.05393,1.04440
1115.56415,0.85421
1114.07436,0.85452
1112.58457,0.83251
1111.09478,0.81063
1109.60499,0.94685
1108.11520,1.08716
1106.62542,0.87180
1105.13563,0.95556
1103.64584,0.86402
1102.15605,0.63308
1100.66626,0.63447
1099.17647,0.63600
1097.68668,0.64163
1096.19690,0.56565
1094.70711,0.61538
1093.21732,0.58151
1091.72753,0.81386
1090.23774,0.73937
1088.74795,0.66501
1087.25817,1.05620
1085.76838,1.03589
1084.27859,1.00275
1082.78880,0.80031
1081.29901,1.00561
1079.80922,0.96985
1078.31943,0.95564
1076.82965,0.94155
1075.33986,1.20913
1073.85007,1.25160
1072.36028,1.24335
1070.87049,1.24620
1069.38070,1.08571
1067.89092,1.06936
1066.40113,1.05313
1064.91134,1.08238
1063.42155,1.19247
1061.93176,1.09538
1060.44197,1.02134
1058.95219,1.08994
1057.46240,0.97777
1055.97261,0.86573
1054.48282,0.88785
1052.99303,0.82139
1051.50324,0.80290
1050.01345,0.75164
1048.52367,0.69950
1047.03388,0.57423
1045.54409,0.44908
1044.05430,0.33353
1042.56451,0.34168
1041.07472,0.28517
1039.58494,0.41316
1038.09515,0.35689
1036.60536,0.38596
1035.11557,0.41516
1033.62578,0.38417
1032.13599,0.37324
1030.64620,0.45812
1029.15642,0.46737
1027.66663,0.39102
1026.17684,0.31480
1024.68705,0.35631
1023.19726,0.75873
1021.70747,0.92108
1020.21769,1.02973
1018.72790,1.08867
1017.23811,1.25586
1015.74832,1.42318
1014.25853,1.50143
1012.76874,1.77115
1011.27896,1.89249
1009.78917,2.00000
1008.29938,1.68306
1006.80959,1.64929
1005.31980,1.61564
1003.83001,1.52530
1002.34022,1.55967
1000.85044,1.56625
999.36065,1.56399
997.87086,1.56633
996.38107,1.56880
994.89128,1.42936
993.40149,1.30599
991.91171,1.33224
990.42192,1.14633
988.93213,1.07217
987.44234,1.04845
985.95255,1.02486
984.46276,0.94209
982.97297,0.99300
981.48319,0.90748
979.99340,0.80415
978.50361,0.79761
977.01382,0.79120
975.52403,0.92942
974.03424,0.85847
972.54446,0.66306
971.05467,0.60431
969.56488,0.36927
968.07509,0.28535
966.58530,0.20156
965.09551,0.18914
963.60573,0.14197
962.11594,0.08694
960.62615,0.14366
959.13636,0.13024
957.64657,0.11694
956.15678,0.11423
954.66699,0.00898
953.17721,0.18122
951.68742,0.30374
950.19763,0.17124
948.70784,0.03886
947.21805,0.14978
945.72826,0.10137
944.23848,0.13181
942.74869,0.26702
941.25890,0.44621
939.76911,0.40426
938.27932,0.36244
936.78953,0.38452
935.29974,0.48446
933.80996,0.52373
932.32017,0.81428
930.83038,0.72573
929.34059,0.63729
927.85080,0.61426
926.36101,0.81859
924.87123,0.93134
923.38144,0.84589
921.89165,0.85524
920.40186,0.86471
918.91207,0.85935
917.42228,1.12621
915.93250,0.95266
914.44271,0.91279
912.95292,0.83018
911.46313,0.74769
909.97334,0.81582
908.48355,0.62993
906.99376,0.29067
905.50398,0.15585
904.01419,0.14873
902.52440,0.14172
901.03461,0.14281
899.54482,0.18688
898.05503,0.46031
896.56525,0.57737
895.07546,0.66018
893.58567,0.74311
892.09588,0.45889
890.60609,0.40203
889.11630,0.56357
887.62651,0.80296
886.13673,0.88600
884.64694,0.96916
883.15715,0.66475
881.66736,0.84284
880.17757,0.90444
878.68778,0.97065
877.19800,1.03698
875.70821,0.97735
874.21842,0.90888
872.72863,1.11461
871.23884,1.37229
869.74905,1.41083
868.25927,1.44949
866.76948,1.48229
865.27969,1.61388
863.78990,1.50141
862.30011,1.59139
860.81032,1.57983
859.32053,1.56839
857.83075,1.86304
856.34096,1.84288
854.85117,1.61354
853.36138,1.20193
851.87159,1.08645
850.38180,0.97110
848.89202,0.85487
847.40223,1.26499
845.91244,1.23970
844.42265,1.02616
842.93286,0.81275
841.44307,0.75494
839.95329,0.92050
838.46350,0.88386
836.97371,0.81544
835.48392,0.69333
833.99413,0.57135
832.50434,0.35480
831.01455,0.36960
829.52477,0.57289
828.03498,0.48229
826.54519,0.54778
825.05540,0.61340
823.56561,0.64675
822.07582,0.39219
820.58604,0.42080
819.09625,0.51880
817.60646,0.61692
816.11667,0.69672
814.62688,0.31121
813.13709,0.32449
811.64730,0.00898
810.15752,0.09768
808.66773,0.18650
807.17794,0.45733
805.68815,0.49108
804.19836,0.45020
802.70857,0.54250
801.21879,0.63492
799.72900,0.50570
798.23921,0.29488
796.74942,0.24963
795.25963,0.25932
793.76984,0.26912
792.28006,0.46942
790.79027,0.39176
789.30048,0.30825
787.81069,0.34546
786.32090,0.26119
784.83111,0.17705
783.34132,0.15283
781.85154,0.11877
780.36175,0.33498
778.87196,0.35099
777.38217,0.36713
775.89238,0.14120
774.40259,0.26621
772.91281,0.41028
771.42302,0.42790
769.93323,0.44564
768.44344,0.43958
766.95365,0.38082
765.46386,0.36903
763.97407,0.17397
762.48429,0.17140
760.99450,0.16894
759.50471,0.54234
758.01492,0.53116
756.52513,0.33472
755.03534,0.17179
753.54556,0.00898
752.05577,0.13312
750.56598,0.19458
749.07619,0.42461
747.58640,0.44645
746.09661,0.46842
744.60683,0.49350
743.11704,0.47385
741.62725,0.55099
740.13746,0.55053
738.64767,0.55018
737.15788,0.29481
735.66809,0.06847
734.17831,0.34854
732.68852,0.37111
731.19873,0.39380
729.70894,0.36827
728.21915,0.28905
726.72936,0.42721
725.23958,0.22764
723.74979,0.17918
722.26000,0.13084
720.77021,0.13893
719.28042,0.36342
717.79063,0.38073
716.30084,0.32042
714.81106,0.26023
713.32127,0.28787
711.83148,0.33158
710.34169,0.21396
708.85190,0.28631
707.36211,0.35879
705.87233,0.26744
704.38254,0.18220
702.89275,0.16684
701.40296,0.28316
699.91317,0.39961
698.42338,0.42946
696.93360,0.30795
695.44381,0.52044
693.95402,0.55365
692.46423,0.58699
690.97444,0.47593
689.48465,0.50353
687.99486,0.43757
686.50508,0.47289
685.01529,0.50833
683.52550,0.56731
682.03571,0.58456
680.54592,0.76538
679.05613,0.64084
677.56635,0.51643
676.07656,0.45144
674.58677,0.54804
673.09698,0.32283
671.60719,0.19343
670.11740,0.06414
668.62761,0.27684
667.13783,0.31922
665.64804,0.31090
664.15825,0.30270
662.66846,0.28964
661.17867,0.23584
659.68888,0.15326
658.19910,0.08774
656.70931,0.02235
655.21952,0.01795
653.72973,0.37310
652.23994,0.33469
650.75015,0.38411
649.26037,0.43365
647.77058,0.18332
646.28079,0.07563
644.79100,0.21125
643.30121,0.17955
641.81142,0.14798
640.32163,0.16835
638.83185,0.03835
637.34206,0.02508
635.85227,0.15694
634.36248,0.28892
632.87269,0.10957
631.38290,0.06888
629.89312,0.28345
628.40333,0.20264
626.91354,0.12194
625.42375,0.00898
623.93396,0.05390
622.44417,0.16072
620.95438,0.26767
619.46460,0.00000
617.97481,0.02646
616.48502,0.29723
614.99523,0.33141
613.50544,0.36572
612.01565,0.19633
610.52587,0.20546
609.03608,0.22369
607.54629,0.17277
606.05650,0.12197
604.56671,0.13259
603.07692,0.27489
601.58714,0.21299
600.09735,0.15122
598.60756,0.10851
597.11777,0.20545
595.62798,0.36929
594.13819,0.19887
592.64840,0.02858
591.15862,0.14893
589.66883,0.17074
588.17904,0.32522
586.68925,0.39162
585.19946,0.45814
583.70967,0.38077
582.21989,0.28259
580.73010,0.22290
579.24031,0.16334
577.75052,0.27781
576.26073,0.41733
574.77094,0.28587
573.28115,0.22779
571.79137,0.16983
570.30158,0.33475
568.81179,0.48583
567.32200,0.53040
565.83221,0.57509
564.34242,0.73750
562.85264,0.75552
561.36285,0.76071
559.87306,0.69626
558.38327,0.63192
556.89348,0.90159
555.40369,1.15344
553.91391,1.29428
552.42412,1.43525
550.93433,1.52401
549.44454,1.37569
547.95475,1.29826
546.46496,1.20650
544.97517,1.11486
543.48539,1.14443
541.99560,1.10237
540.50581,1.08385
539.01602,1.06545
537.52623,1.10149
536.03644,1.25925
534.54666,1.13607
533.05687,1.20936
531.56708,1.28277
530.07729,1.35131
528.58750,1.30337
527.09771,1.29791
525.60792,1.29257
524.11814,1.27988
522.62835,1.16963
521.13856,0.99174
519.64877,0.92211
518.15898,0.85260
516.66919,0.85347
515.17941,1.02390
513.68962,0.96173
512.19983,0.89968
510.71004,1.10237
509.22025,1.08591
507.73046,0.92507
506.24068,0.89640
504.75089,0.86785
503.26110,0.73727
501.77131,0.90979
500.28152,0.89158
498.79173,0.87348
497.30194,0.92877
495.81216,0.91142
494.32237,1.05914
492.83258,1.20698
491.34279,0.68269
489.85300,0.68576
488.36321,0.82251
486.87343,0.68829
485.38364,0.55418
483.89385,0.38831
482.40406,0.40395
480.91427,0.44314
479.42448,0.48244
477.93469,0.41174
476.44491,0.27040
474.95512,0.17403
473.46533,0.07778
471.97554,0.06537
470.48575,0.19361
468.99596,0.16152
467.50618,0.08519
466.01639,0.00898
464.52660,0.25728
463.03681,0.23361
461.54702,0.24146
460.05723,0.24943
458.56745,0.30486
457.07766,0.50095
455.58787,0.51975
454.09808,0.53867
452.60829,0.50091
451.11850,0.47224
449.62871,0.53438
448.13893,0.59665
446.64914,0.99093
445.15935,1.10726
443.66956,1.15893
442.17977,1.05723
440.68998,0.95566
439.20020,0.73960
437.71041,0.78877
436.22062,0.82361
434.73083,0.85857
433.24104,1.08152
431.75125,1.23383
430.26146,1.06834
428.77168,0.90296
427.28189,0.80049
425.79210,1.18153
424.30231,1.21385
422.81252,1.24630
421.32273,1.05463
419.83295,0.86008
418.34316,0.94472
416.85337,1.02948
415.36358,0.94893
413.87379,1.07280
412.38400,1.04232
410.89422,1.01196
409.40443,1.12225
407.91464,0.64663
406.42485,0.60666
404.93506,0.61466
403.44527,0.62279
401.95548,0.58518
400.46570,0.87361
398.97591,0.66284
397.48612,0.45218
395.99633,0.19580
394.50654,0.21662
393.01675,0.29386
391.52697,0.37123
390.03718,0.48012
388.54739,0.62700
387.05760,0.63048
385.56781,0.63409
384.07802,0.70161
382.58824,0.43536
381.09845,0.38950
379.60866,0.34376
378.11887,0.45861
376.62908,0.33936
375.13929,0.29847
373.64950,0.25771
372.15972,0.34713
370.66993,0.40777
369.18014,0.42169
367.69035,0.43573
366.20056,0.39109
364.71077,0.58477
363.22099,0.61861
361.73120,0.65257
360.24141,0.39613
358.75162,0.16772
357.26183,0.18097
355.77204,0.19434
354.28225,0.21232
352.79247,0.21946
351.30268,0.17389
349.81289,0.12845
348.32310,0.21170
346.83331,0.44378
345.34352,0.31669
343.85374,0.18973
342.36395,0.28862
340.87416,0.26506
339.38437,0.13696
337.89458,0.00898
336.40479,0.17097
334.91501,0.18557
333.42522,0.11259
331.93543,0.03973
330.44564,0.07862
328.95585,0.53622
327.46606,0.60775
325.97627,0.67940
324.48649,0.60216
322.99670,0.25795
321.50691,0.20676
320.01712,0.15569
318.52733,0.33098
317.03754,0.43962
315.54776,0.34158
314.05797,0.24366
312.56818,0.52210
311.07839,0.46080
309.58860,0.29946
308.09881,0.13824
306.60902,0.22082
305.11924,0.32446
303.62945,0.26975
302.13966,0.05110
300.64987,0.00898
299.16008,0.00898
