1778.52000,0.13149
1777.03021,0.04937
1775.54042,0.01073
1774.05063,0.29344
1772.56085,0.22684
1771.07106,0.16982
1769.58127,0.20337
1768.09148,0.23990
1766.60169,0.22759
1765.11190,0.19566
1763.62212,0.23170
1762.13233,0.39504
1760.64254,0.45022
1759.15275,0.58938
1757.66296,0.57986
1756.17317,0.42356
1754.68339,0.14871
1753.19360,0.28951
1751.70381,0.34851
1750.21402,0.36057
1748.72423,0.42929
1747.23444,0.33238
1745.74465,0.52291
1744.25487,0.41123
1742.76508,0.24036
1741.27529,0.45018
1739.78550,0.47930
1738.29571,0.33243
1736.80592,0.38257
1735.31614,0.31701
1733.82635,0.28739
1732.33656,0.24285
1730.84677,0.30113
1729.35698,0.15046
1727.86719,0.17513
1726.37740,0.22445
1724.88762,0.24377
1723.39783,0.40830
1721.90804,0.43640
1720.41825,0.40908
1718.92846,0.36212
1717.43867,0.22395
1715.94889,0.35062
1714.45910,0.32861
1712.96931,0.26624
1711.47952,0.38865
1709.98973,0.39723
1708.49994,0.29858
1707.01016,0.31783
1705.52037,0.33722
1704.03058,0.26540
1702.54079,0.13722
1701.05100,0.25031
1699.56121,0.34755
1698.07142,0.31966
1696.58164,0.30605
1695.09185,0.33309
1693.60206,0.20110
1692.11227,0.35654
1690.62248,0.43490
1689.13269,0.49269
1687.64291,0.57041
1686.15312,0.53901
1684.66333,0.43995
1683.17354,0.39661
1681.68375,0.35153
1680.19396,0.41681
1678.70417,0.42950
1677.21439,0.13621
1675.72460,0.01073
1674.23481,0.25993
1672.74502,0.30488
1671.25523,0.54308
1669.76544,0.54313
1668.27566,0.41427
1666.78587,0.33078
1665.29608,0.57900
1663.80629,0.38090
1662.31650,0.45140
1660.82671,0.49473
1659.33693,0.30744
1657.84714,0.27195
1656.35735,0.06518
1654.86756,0.19388
1653.37777,0.02697
1651.88798,0.20402
1650.39819,0.33506
1648.90841,0.37583
1647.41862,0.11250
1645.92883,0.18843
1644.43904,0.26450
1642.94925,0.35767
1641.45946,0.14864
1639.96968,0.27132
1638.47989,0.33009
1636.99010,0.45119
1635.50031,0.43774
1634.01052,0.33589
1632.52073,0.37643
1631.03094,0.30974
1629.54116,0.14807
1628.05137,0.09392
1626.56158,0.01073
1625.07179,0.15270
1623.58200,0.32309
1622.09221,0.45971
1620.60243,0.40433
1619.11264,0.31802
1617.62285,0.32511
1616.13306,0.36531
1614.64327,0.20315
1613.15348,0.17302
1611.66370,0.11948
1610.17391,0.26673
1608.68412,0.38964
1607.19433,0.54943
1605.70454,0.30528
1604.21475,0.33398
1602.72496,0.36282
1601.23518,0.44221
1599.74539,0.43227
1598.25560,0.39893
1596.76581,0.39965
1595.27602,0.31386
1593.78623,0.17453
1592.29645,0.02499
1590.80666,0.10167
1589.31687,0.10219
1587.82708,0.30727
1586.33729,0.25912
1584.84750,0.21489
1583.35771,0.21320
1581.86793,0.24839
1580.37814,0.08781
1578.88835,0.17699
1577.39856,0.23618
1575.90877,0.29175
1574.41898,0.26553
1572.92920,0.23098
1571.43941,0.04870
1569.94962,0.04883
1568.45983,0.04911
1566.97004,0.01422
1565.48025,0.10236
1563.99047,0.17934
1562.50068,0.16700
1561.01089,0.05872
1559.52110,0.09095
1558.03131,0.19774
1556.54152,0.12100
1555.05173,0.07361
1553.56195,0.00000
1552.07216,0.14892
1550.58237,0.10206
1549.09258,0.36996
1547.60279,0.30175
1546.11300,0.01703
1544.62322,0.24546
1543.13343,0.45520
1541.64364,0.22427
1540.15385,0.23463
1538.66406,0.24513
1537.17427,0.24731
1535.68448,0.31463
1534.19470,0.32370
1532.70491,0.05599
1531.21512,0.01262
1529.72533,0.01995
1528.23554,0.08865
1526.74575,0.11135
1525.25597,0.25760
1523.76618,0.41059
1522.27639,0.25572
1520.78660,0.15563
1519.29681,0.32791
1517.80702,0.25073
1516.31724,0.08515
1514.82745,0.20702
1513.33766,0.32762
1511.84787,0.44838
1510.35808,0.52831
1508.86829,0.37197
1507.37850,0.20636
1505.88872,0.20102
1504.39893,0.06209
1502.90914,0.06082
1501.41935,0.01073
1499.92956,0.10467
1498.43977,0.35418
1496.94999,0.41169
1495.46020,0.45239
1493.97041,0.38304
1492.48062,0.48903
1490.99083,0.65358
1489.50104,0.75894
1488.01125,0.60588
1486.52147,0.45298
1485.03168,0.40996
1483.54189,0.45281
1482.05210,0.58152
1480.56231,0.76502
1479.07252,0.77064
1477.58274,0.75193
1476.09295,0.80212
1474.60316,0.94949
1473.11337,1.30234
1471.62358,1.32567
1470.13379,1.21916
1468.64401,1.09680
1467.15422,0.97929
1465.66443,0.94859
1464.17464,0.91804
1462.68485,0.90271
1461.19506,0.71987
1459.70527,0.60594
1458.21549,0.50911
1456.72570,0.57822
1455.23591,0.72471
1453.74612,0.65001
1452.25633,0.67341
1450.76654,0.31171
1449.27676,0.32788
1447.78697,0.16900
1446.29718,0.19771
1444.80739,0.24024
1443.31760,0.28291
1441.82781,0.24897
1440.33802,0.23307
1438.84824,0.25029
1437.35845,0.15652
1435.86866,0.07985
1434.37887,0.10411
1432.88908,0.15397
1431.39929,0.06550
1429.90951,0.30310
1428.41972,0.21682
1426.92993,0.62991
1425.44014,0.32635
1423.95035,0.16846
1422.46056,0.01073
1420.97078,0.10376
1419.48099,0.45314
1417.99120,0.52292
1416.50141,0.35643
1415.01162,0.20610
1413.52183,0.25090
1412.03204,0.37026
1410.54226,0.28255
1409.05247,0.26281
1407.56268,0.30256
1406.07289,0.38202
1404.58310,0.38722
1403.09331,0.39258
1401.60353,0.21817
1400.11374,0.27657
1398.62395,0.38221
1397.13416,0.29963
1395.64437,0.38485
1394.15458,0.53710
1392.66479,0.56141
1391.17501,0.74222
1389.68522,0.34954
1388.19543,0.26127
1386.70564,0.34786
1385.21585,0.43461
1383.72606,0.52010
1382.23628,0.44467
1380.74649,0.62748
1379.25670,0.50148
1377.76691,0.22681
1376.27712,0.60223
1374.78733,0.64246
1373.29755,0.61221
1371.80776,0.71774
1370.31797,0.91007
1368.82818,0.95421
1367.33839,0.99850
1365.84860,0.98689
1364.35881,0.99992
1362.86903,0.91231
1361.37924,1.12440
1359.88945,1.14918
1358.39966,0.70221
1356.90987,0.83562
1355.42008,1.08127
1353.93030,1.11043
1352.44051,1.02388
1350.95072,0.93748
1349.46093,0.74667
1347.97114,0.75571
1346.48135,0.63302
1344.99156,0.61975
1343.50178,0.67728
1342.01199,0.69540
1340.52220,0.73533
1339.03241,0.62187
1337.54262,0.57074
1336.05283,0.54754
1334.56305,0.52449
1333.07326,0.31933
1331.58347,0.26597
1330.09368,0.19110
1328.60389,0.25766
1327.11410,0.39220
1325.62432,0.49015
1324.13453,0.37349
1322.64474,0.32198
1321.15495,0.26402
1319.66516,0.16430
1318.17537,0.06472
1316.68558,0.21256
1315.19580,0.06854
1313.70601,0.13473
1312.21622,0.03812
1310.72643,0.11026
1309.23664,0.15429
1307.74685,0.10428
1306.25707,0.19665
1304.76728,0.10362
1303.27749,0.01073
1301.78770,0.17320
1300.29791,0.12107
1298.80812,0.18400
1297.31834,0.06905
1295.82855,0.18597
1294.33876,0.31246
1292.84897,0.35621
1291.35918,0.48395
1289.86939,0.31559
1288.37960,0.14739
1286.88982,0.07494
1285.40003,0.26733
1283.91024,0.12737
1282.42045,0.37092
1280.93066,0.67020
1279.44087,0.58720
1277.95109,0.38661
1276.46130,0.27943
1274.97151,0.29060
1273.48172,0.30193
1271.99193,0.35909
1270.50214,0.46915
1269.01235,0.39663
1267.52257,0.51076
1266.03278,0.44419
1264.54299,0.66882
1263.05320,0.76927
1261.56341,0.68620
1260.07362,0.60327
1258.58384,0.57607
1257.09405,0.53301
1255.60426,0.71522
1254.11447,0.51516
1252.62468,0.30959
1251.13489,0.19178
1249.64511,0.48480
1248.15532,0.57168
1246.66553,0.49341
1245.17574,0.41529
1243.68595,0.27845
1242.19616,0.26797
1240.70637,0.25483
1239.21659,0.21640
1237.72680,0.19884
1236.23701,0.42916
1234.74722,0.47690
1233.25743,0.48852
1231.76764,0.50030
1230.27786,0.32713
1228.78807,0.20592
1227.29828,0.31281
1225.80849,0.43586
1224.31870,0.15498
1222.82891,0.22464
1221.33912,0.22381
1219.84934,0.25280
1218.35955,0.28194
1216.86976,0.12521
1215.37997,0.19280
1213.89018,0.40371
1212.40039,0.25308
1210.91061,0.58957
1209.42082,0.54661
1207.93103,0.45954
1206.44124,0.37261
1204.95145,0.26041
1203.46166,0.19639
1201.97188,0.14759
1200.48209,0.26661
1198.99230,0.16914
1197.50251,0.16412
1196.01272,0.04811
1194.52293,0.14041
1193.03314,0.23287
1191.54336,0.47806
1190.05357,0.66501
1188.56378,0.53280
1187.07399,0.35175
1185.58420,0.01073
1184.09441,0.02506
1182.60463,0.14598
1181.11484,0.26704
1179.62505,0.38638
1178.13526,0.53601
1176.64547,0.54920
1175.15568,0.26113
1173.66589,0.22471
1172.17611,0.21763
1170.68632,0.27570
1169.19653,0.33392
1167.70674,0.46482
1166.21695,0.52240
1164.72716,0.32393
1163.23738,0.25371
1161.74759,0.27689
1160.25780,0.37746
1158.76801,0.30768
1157.27822,0.23806
1155.78843,0.37017
1154.29865,0.43272
1152.80886,0.60657
1151.31907,0.65906
1149.82928,0.72489
1148.33949,0.80500
1146.84970,0.65166
1145.35991,0.49847
1143.87013,0.35862
1142.38034,0.44310
1140.89055,0.58895
1139.40076,0.53621
1137.91097,0.84061
1136.42118,0.64593
1134.93140,0.69302
1133.44161,0.74025
1131.95182,0.77868
1130.46203,0.74757
1128.97224,0.65820
1127.48245,0.81012
1125.99266,0.89814
1124.50288,1.13136
1123.01309,1.12172
1121.52330,1.11223
1120.03351,1.05202
1118.54372,0.78192
1117.05393,0.84164
1115.56415,0.78565
1114.07436,0.68460
1112.58457,0.73018
1111.09478,0.77590
1109.60499,0.72993
1108.11520,0.98271
1106.62542,1.13203
1105.13563,1.00174
1103.64584,1.02702
1102.15605,0.83770
1100.66626,0.78698
1099.17647,0.73642
1097.68668,0.48255
1096.19690,0.50293
1094.70711,0.56680
1093.21732,0.73631
1091.72753,0.81931
1090.23774,0.89681
1088.74795,0.97446
1087.25817,0.99010
1085.76838,1.02660
1084.27859,0.98885
1082.78880,1.16977
1081.29901,1.19543
1079.80922,1.23631
1078.31943,1.18314
1076.82965,1.13013
1075.33986,1.27601
1073.85007,1.30430
1072.36028,1.13211
1070.87049,0.96102
1069.38070,1.21017
1067.89092,1.20516
1066.40113,1.20030
1064.91134,1.14754
1063.42155,1.11943
1061.93176,1.19602
1060.44197,0.84701
1058.95219,0.82877
1057.46240,0.92748
1055.97261,1.02634
1054.48282,1.20165
1052.99303,1.32624
1051.50324,0.91503
1050.01345,0.60098
1048.52367,0.63937
1047.03388,0.57005
1045.54409,0.50089
1044.05430,0.35793
1042.56451,0.01073
1041.07472,0.19218
1039.58494,0.41711
1038.09515,0.58756
1036.60536,0.53539
1035.11557,0.48337
1033.62578,0.30481
1032.13599,0.15183
1030.64620,0.11864
1029.15642,0.10066
1027.66663,0.16855
1026.17684,0.23659
1024.68705,0.44889
1023.19726,0.71598
1021.70747,0.90127
1020.21769,0.97368
1018.72790,1.08862
1017.23811,1.25459
1015.74832,1.42070
1014.25853,1.60486
1012.76874,1.71570
1011.27896,2.00000
1009.78917,1.97738
1008.29938,1.82870
1006.80959,1.83936
1005.31980,1.85016
1003.83001,1.98545
1002.34022,1.89860
1000.85044,1.84203
999.36065,1.46160
997.87086,1.55698
996.38107,1.65252
994.89128,1.53534
993.40149,1.55582
991.91171,1.34474
990.42192,1.17149
988.93213,0.92115
987.44234,0.82780
985.95255,0.73459
984.46276,0.94060
982.97297,1.24095
981.48319,0.98948
979.99340,0.58651
978.50361,0.57977
977.01382,0.57318
975.52403,0.81683
974.03424,0.81290
972.54446,0.70268
971.05467,0.64442
969.56488,0.35365
968.07509,0.24435
966.58530,0.13521
965.09551,0.33187
963.60573,0.24421
962.11594,0.26221
960.62615,0.22101
959.13636,0.23743
957.64657,0.25399
956.15678,0.01073
954.66699,0.09468
953.17721,0.28146
951.68742,0.13588
950.19763,0.20380
948.70784,0.27187
947.21805,0.12203
945.72826,0.04770
944.23848,0.08844
942.74869,0.34785
941.25890,0.54619
939.76911,0.54122
938.27932,0.53641
936.78953,0.07396
935.29974,0.36144
933.80996,0.45598
932.32017,0.75413
930.83038,0.72086
929.34059,0.68775
927.85080,0.70282
926.36101,0.77456
924.87123,0.85964
923.38144,0.66983
921.89165,0.72459
920.40186,0.77951
918.91207,0.92265
917.42228,0.87756
915.93250,1.06998
914.44271,0.95830
912.95292,0.90989
911.46313,0.86163
909.97334,0.72215
908.48355,0.64970
906.99376,0.29199
905.50398,0.01073
904.01419,0.06527
902.52440,0.11996
901.03461,0.24545
899.54482,0.22132
898.05503,0.43848
896.56525,0.50884
895.07546,0.55063
893.58567,0.59256
892.09588,0.67468
890.60609,0.34910
889.11630,0.41456
887.62651,0.72696
886.13673,0.81534
884.64694,0.90386
883.15715,0.95580
881.66736,0.70176
880.17757,0.79639
878.68778,0.91707
877.19800,1.03790
875.70821,1.03596
874.21842,1.12365
872.72863,1.02782
871.23884,1.35601
869.74905,1.38010
868.25927,1.40434
866.76948,1.45700
865.27969,1.55313
863.78990,1.55898
862.30011,1.58477
860.81032,1.60318
859.32053,1.62173
857.83075,1.74970
856.34096,1.82413
854.85117,1.48237
853.36138,1.49682
851.87159,1.30136
850.38180,1.10606
848.89202,1.09176
847.40223,1.26787
845.91244,1.12106
844.42265,0.96027
842.93286,0.79963
841.44307,0.61747
839.95329,0.82637
838.46350,1.03353
836.97371,0.91211
835.48392,0.80968
833.99413,0.70740
832.50434,0.41782
831.01455,0.16702
829.52477,0.30727
828.03498,0.56446
826.54519,0.69230
825.05540,0.82028
823.56561,0.68137
822.07582,0.42770
820.58604,0.27591
819.09625,0.46620
817.60646,0.65663
816.11667,0.51659
814.62688,0.52270
813.13709,0.17480
811.64730,0.01073
810.15752,0.10668
808.66773,0.20279
807.17794,0.36121
805.68815,0.51414
804.19836,0.41760
802.70857,0.40740
801.21879,0.39735
799.72900,0.25228
798.23921,0.15351
796.74942,0.15946
795.25963,0.18251
793.76984,0.20570
792.28006,0.32890
790.79027,0.19415
789.30048,0.13020
787.81069,0.37724
786.32090,0.31548
784.83111,0.25386
783.34132,0.34876
781.85154,0.09435
780.36175,0.08499
778.87196,0.06778
777.38217,0.05072
775.89238,0.01073
774.40259,0.09834
772.91281,0.09191
771.42302,0.06397
769.93323,0.03618
768.44344,0.19221
766.95365,0.25232
765.46386,0.16564
763.97407,0.03860
762.48429,0.15191
760.99450,0.26537
759.50471,0.38180
758.01492,0.29022
756.52513,0.03678
755.03534,0.02368
753.54556,0.01073
752.05577,0.14935
750.56598,0.41716
749.07619,0.59282
747.58640,0.54397
746.09661,0.49528
744.60683,0.28142
743.11704,0.21560
741.62725,0.18855
740.13746,0.28693
738.64767,0.38546
737.15788,0.12714
735.66809,0.08468
734.17831,0.13562
732.68852,0.19567
731.19873,0.25586
729.70894,0.27240
728.21915,0.23917
726.72936,0.39447
725.23958,0.18729
723.74979,0.09893
722.26000,0.01073
720.77021,0.02099
719.28042,0.17928
717.79063,0.33113
716.30084,0.26555
714.81106,0.20011
713.32127,0.11598
711.83148,0.47378
710.34169,0.28163
708.85190,0.36515
707.36211,0.44883
705.87233,0.43327
704.38254,0.13058
702.89275,0.12475
701.40296,0.18830
699.91317,0.25200
698.42338,0.29184
696.93360,0.37703
695.44381,0.37572
693.95402,0.35384
692.46423,0.33211
690.97444,0.35856
689.48465,0.38894
687.99486,0.34693
686.50508,0.35123
685.01529,0.35569
683.52550,0.45166
682.03571,0.35751
680.54592,0.58282
679.05613,0.60577
677.56635,0.62887
676.07656,0.57206
674.58677,0.44476
673.09698,0.46266
671.60719,0.32670
670.11740,0.19090
668.62761,0.05195
667.13783,0.12037
665.64804,0.16681
664.15825,0.21341
662.66846,0.47067
661.17867,0.28255
659.68888,0.33195
658.19910,0.21101
656.70931,0.09021
655.21952,0.02986
653.72973,0.14297
652.23994,0.33252
650.75015,0.17654
649.26037,0.02071
647.77058,0.05247
646.28079,0.21249
644.79100,0.54974
643.30121,0.40393
641.81142,0.25827
640.32163,0.19565
638.83185,0.01073
637.34206,0.08206
635.85227,0.07019
634.36248,0.05846
632.87269,0.00120
631.38290,0.12900
629.89312,0.18537
628.40333,0.13263
626.91354,0.08003
625.42375,0.00781
623.93396,0.23433
622.44417,0.24906
620.95438,0.26395
619.46460,0.27898
617.97481,0.24331
616.48502,0.40087
614.99523,0.28166
613.50544,0.16261
612.01565,0.01073
610.52587,0.28409
609.03608,0.41443
607.54629,0.30144
606.05650,0.18859
604.56671,0.11969
603.07692,0.21766
601.58714,0.30496
600.09735,0.39240
598.60756,0.33729
597.11777,0.32755
595.62798,0.38954
594.13819,0.21479
592.64840,0.04018
591.15862,0.09133
589.66883,0.22362
588.17904,0.39469
586.68925,0.28239
585.19946,0.17023
583.70967,0.45290
582.21989,0.32880
580.73010,0.30658
579.24031,0.28451
577.75052,0.39258
576.26073,0.31713
574.77094,0.22392
573.28115,0.31266
571.79137,0.40156
570.30158,0.57537
568.81179,0.69376
567.32200,0.66819
565.83221,0.64277
564.34242,0.84450
562.85264,0.78924
561.36285,0.71905
559.87306,0.62688
558.38327,0.53486
556.89348,0.82683
555.40369,1.35444
553.91391,1.51908
552.42412,1.68386
550.93433,1.69762
549.44454,1.43461
547.95475,1.05400
546.46496,0.96412
544.97517,0.87440
543.48539,1.23555
541.99560,1.21630
540.50581,1.38559
539.01602,1.55503
537.52623,1.60876
536.03644,1.29624
534.54666,0.94430
533.05687,1.14684
531.56708,1.34953
530.07729,1.32960
528.58750,1.26084
527.09771,1.22426
525.60792,1.18783
524.11814,1.02910
522.62835,1.33395
521.13856,1.20661
519.64877,1.10202
518.15898,0.99758
516.66919,0.95263
515.17941,0.91066
513.68962,0.92960
512.19983,0.94868
510.71004,0.94390
509.22025,1.09280
507.73046,0.99695
506.24068,0.95212
504.75089,0.90743
503.26110,1.07672
501.77131,1.23391
500.28152,1.22783
498.79173,1.22189
497.30194,1.06399
495.81216,1.16150
494.32237,1.07077
492.83258,0.98019
491.34279,0.83043
489.85300,0.80043
488.36321,0.77342
486.87343,0.65990
485.38364,0.54652
483.89385,0.34193
482.40406,0.16387
480.91427,0.16163
479.42448,0.15953
477.93469,0.31819
476.44491,0.26789
474.95512,0.27002
473.46533,0.27229
471.97554,0.07738
470.48575,0.01073
468.99596,0.02993
467.50618,0.04881
466.01639,0.06784
464.52660,0.15814
463.03681,0.32488
461.54702,0.33871
460.05723,0.35269
458.56745,0.35128
457.07766,0.49979
455.58787,0.46148
454.09808,0.42331
452.60829,0.43946
451.11850,0.65638
449.62871,0.75714
448.13893,0.85804
446.64914,1.21011
445.15935,1.10739
443.66956,0.94924
442.17977,0.99281
440.68998,1.03654
439.20020,0.74320
437.71041,0.82302
436.22062,0.82151
434.73083,0.82015
433.24104,1.44580
431.75125,1.34632
430.26146,1.12076
428.77168,0.89536
427.28189,0.90276
425.79210,1.24375
424.30231,1.23827
422.81252,1.23294
421.32273,0.83873
419.83295,0.73857
418.34316,0.94044
416.85337,1.14246
415.36358,1.33851
413.87379,1.06563
412.38400,1.11457
410.89422,1.16366
409.40443,0.94963
407.91464,0.56997
406.42485,0.67650
404.93506,0.70830
403.44527,0.74024
401.95548,0.75397
400.46570,0.85451
398.97591,0.73149
397.48612,0.60862
395.99633,0.40159
394.50654,0.40194
393.01675,0.47827
391.52697,0.55475
390.03718,0.65917
388.54739,0.68367
387.05760,0.83595
385.56781,0.98839
384.07802,0.75997
382.58824,0.69087
381.09845,0.56213
379.60866,0.43352
378.11887,0.49770
376.62908,0.51775
375.13929,0.49039
373.64950,0.46318
372.15972,0.60520
370.66993,0.52789
369.18014,0.48371
367.69035,0.43967
366.20056,0.58454
364.71077,0.81057
363.22099,0.88980
361.73120,0.96919
360.24141,0.69644
358.75162,0.42102
357.26183,0.48437
355.77204,0.54788
354.28225,0.46035
352.79247,0.22133
351.30268,0.24713
349.81289,0.27309
348.32310,0.58837
346.83331,0.65373
345.34352,0.60196
343.85374,0.55035
342.36395,0.68115
340.87416,0.57568
339.38437,0.50379
337.89458,0.43206
336.40479,0.12922
334.91501,0.10442
333.42522,0.06940
331.93543,0.03453
330.44564,0.44597
328.95585,0.69366
327.46606,0.72250
325.97627,0.75149
324.48649,0.65616
322.99670,0.62785
321.50691,0.36469
320.01712,0.10167
318.52733,0.37707
317.03754,0.32011
315.54776,0.16534
314.05797,0.01073
312.56818,0.26428
311.07839,0.51986
309.58860,0.29757
308.09881,0.07542
306.60902,0.18829
305.11924,0.71669
303.62945,0.54445
302.13966,0.37236
300.64987,0.09680
299.16008,0.01073
