1778.52000,0.00000
1777.03021,0.00255
1775.54042,0.02067
1774.05063,0.05593
1772.56085,0.18760
1771.07106,0.26179
1769.58127,0.18058
1768.09148,0.06676
1766.60169,0.09443
1765.11190,0.14545
1763.62212,0.20738
1762.13233,0.26314
1760.64254,0.19458
1759.15275,0.20844
1757.66296,0.14151
1756.17317,0.00000
1754.68339,0.03535
1753.19360,0.19819
1751.70381,0.23517
1750.21402,0.27063
1748.72423,0.22219
1747.23444,0.13337
1745.74465,0.18292
1744.25487,0.22785
1742.76508,0.16401
1741.27529,0.21989
1739.78550,0.11882
1738.29571,0.18254
1736.80592,0.29449
1735.31614,0.26813
1733.82635,0.11436
1732.33656,0.07719
1730.84677,0.22503
1729.35698,0.23302
1727.86719,0.18819
1726.37740,0.22578
1724.88762,0.16392
1723.39783,0.31039
1721.90804,0.38228
1720.41825,0.37805
1718.92846,0.32411
1717.43867,0.34793
1715.94889,0.29251
1714.45910,0.26510
1712.96931,0.15691
1711.47952,0.21351
1709.98973,0.33076
1708.49994,0.39055
1707.01016,0.39829
1705.52037,0.40608
1704.03058,0.36338
1702.54079,0.30362
1701.05100,0.17706
1699.56121,0.32877
1698.07142,0.29865
1696.58164,0.32763
1695.09185,0.36754
1693.60206,0.46343
1692.11227,0.61221
1690.62248,0.57916
1689.13269,0.61610
1687.64291,0.46344
1686.15312,0.59837
1684.66333,0.63852
1683.17354,0.51239
1681.68375,0.54018
1680.19396,0.57423
1678.70417,0.44043
1677.21439,0.38595
1675.72460,0.40611
1674.23481,0.46362
1672.74502,0.35173
1671.25523,0.51656
1669.76544,0.55241
1668.27566,0.62249
1666.78587,0.65686
1665.29608,0.55914
1663.80629,0.51431
1662.31650,0.62805
1660.82671,0.69054
1659.33693,0.67069
1657.84714,0.49699
1656.35735,0.36529
1654.86756,0.45280
1653.37777,0.42376
1651.88798,0.61082
1650.39819,0.55543
1648.90841,0.57779
1647.41862,0.48828
1645.92883,0.51227
1644.43904,0.53630
1642.94925,0.52928
1641.45946,0.70726
1639.96968,0.67078
1638.47989,0.72137
1636.99010,0.73315
1635.50031,0.51491
1634.01052,0.49567
1632.52073,0.50289
1631.03094,0.42931
1629.54116,0.43194
1628.05137,0.43460
1626.56158,0.34093
1625.07179,0.45558
1623.58200,0.47234
1622.09221,0.73006
1620.60243,0.69716
1619.11264,0.52284
1617.62285,0.58638
1616.13306,0.58156
1614.64327,0.46486
1613.15348,0.47254
1611.66370,0.59995
1610.17391,0.62947
1608.68412,0.64970
1607.19433,0.66220
1605.70454,0.60167
1604.21475,0.53497
1602.72496,0.46830
1601.23518,0.46695
1599.74539,0.59153
1598.25560,0.70683
1596.76581,0.65896
1595.27602,0.64065
1593.78623,0.56643
1592.29645,0.43473
1590.80666,0.44917
1589.31687,0.46521
1587.82708,0.46418
1586.33729,0.34817
1584.84750,0.36276
1583.35771,0.48463
1581.86793,0.53349
1580.37814,0.60881
1578.88835,0.61577
1577.39856,0.49064
1575.90877,0.43550
1574.41898,0.38662
1572.92920,0.19010
1571.43941,0.25786
1569.94962,0.24250
1568.45983,0.22718
1566.97004,0.23443
1565.48025,0.19353
1563.99047,0.32364
1562.50068,0.24085
1561.01089,0.41767
1559.52110,0.36292
1558.03131,0.35485
1556.54152,0.23645
1555.05173,0.35279
1553.56195,0.28265
1552.07216,0.40839
1550.58237,0.36629
1549.09258,0.35843
1547.60279,0.25113
1546.11300,0.29774
1544.62322,0.31641
1543.13343,0.49211
1541.64364,0.34298
1540.15385,0.22964
1538.66406,0.11634
1537.17427,0.21757
1535.68448,0.18982
1534.19470,0.27714
1532.70491,0.20439
1531.21512,0.26535
1529.72533,0.28749
1528.23554,0.13247
1526.74575,0.26971
1525.25597,0.17538
1523.76618,0.23497
1522.27639,0.53086
1520.78660,0.46306
1519.29681,0.26473
1517.80702,0.24675
1516.31724,0.21636
1514.82745,0.07255
1513.33766,0.11141
1511.84787,0.15030
1510.35808,0.33301
1508.86829,0.35876
1507.37850,0.26797
1505.88872,0.28292
1504.39893,0.10982
1502.90914,0.10152
1501.41935,0.00000
1499.92956,0.11831
1498.43977,0.25531
1496.94999,0.32861
1495.46020,0.26517
1493.97041,0.20642
1492.48062,0.37154
1490.99083,0.53670
1489.50104,0.56977
1488.01125,0.44822
1486.52147,0.32670
1485.03168,0.28216
1483.54189,0.45993
1482.05210,0.48075
1480.56231,0.65704
1479.07252,0.60643
1477.58274,0.89159
1476.09295,0.66075
1474.60316,0.90868
1473.11337,0.90951
1471.62358,1.13264
1470.13379,1.00764
1468.64401,0.94951
1467.15422,0.97379
1465.66443,0.95615
1464.17464,0.93854
1462.68485,0.79817
1461.19506,0.73866
1459.70527,0.58593
1458.21549,0.35863
1456.72570,0.24327
1455.23591,0.31292
1453.74612,0.53960
1452.25633,0.55803
1450.76654,0.30293
1449.27676,0.32298
1447.78697,0.28090
1446.29718,0.10828
1444.80739,0.13389
1443.31760,0.15953
1441.82781,0.12380
1440.33802,0.05859
1438.84824,0.00739
1437.35845,0.09147
1435.86866,0.01858
1434.37887,0.02190
1432.88908,0.05945
1431.39929,0.06906
1429.90951,0.19683
1428.41972,0.08372
1426.92993,0.22244
1425.44014,0.06277
1423.95035,0.03137
1422.46056,0.00000
1420.97078,0.02011
1419.48099,0.12108
1417.99120,0.20654
1416.50141,0.30448
1415.01162,0.17240
1413.52183,0.13985
1412.03204,0.26120
1410.54226,0.23960
1409.05247,0.20093
1407.56268,0.16696
1406.07289,0.20297
1404.58310,0.24135
1403.09331,0.27977
1401.60353,0.16667
1400.11374,0.13755
1398.62395,0.09602
1397.13416,0.27836
1395.64437,0.32395
1394.15458,0.33072
1392.66479,0.29866
1391.17501,0.30706
1389.68522,0.19736
1388.19543,0.19339
1386.70564,0.30370
1385.21585,0.41405
1383.72606,0.35579
1382.23628,0.51051
1380.74649,0.48963
1379.25670,0.52318
1377.76691,0.50547
1376.27712,0.47848
1374.78733,0.48416
1373.29755,0.33289
1371.80776,0.39149
1370.31797,0.68173
1368.82818,0.72098
1367.33839,0.76026
1365.84860,0.82522
1364.35881,0.83427
1362.86903,0.82936
1361.37924,0.88821
1359.88945,0.92223
1358.39966,0.92831
1356.90987,0.91888
1355.42008,1.07581
1353.93030,0.96386
1352.44051,0.88693
1350.95072,0.81003
1349.46093,0.65001
1347.97114,0.55220
1346.48135,0.55079
1344.99156,0.52300
1343.50178,0.52322
1342.01199,0.43955
1340.52220,0.45538
1339.03241,0.34069
1337.54262,0.39701
1336.05283,0.31115
1334.56305,0.22532
1333.07326,0.38589
1331.58347,0.37397
1330.09368,0.46001
1328.60389,0.25541
1327.11410,0.18919
1325.62432,0.16187
1324.13453,0.10039
1322.64474,0.22702
1321.15495,0.12053
1319.66516,0.10889
1318.17537,0.09729
1316.68558,0.10127
1315.19580,0.22808
1313.70601,0.26788
1312.21622,0.34813
1310.72643,0.11755
1309.23664,0.20875
1307.74685,0.00000
1306.25707,0.13624
1304.76728,0.16837
1303.27749,0.20054
1301.78770,0.01669
1300.29791,0.01163
1298.80812,0.21022
1297.31834,0.23166
1295.82855,0.24224
1294.33876,0.31660
1292.84897,0.40342
1291.35918,0.34417
1289.86939,0.30594
1288.37960,0.26775
1286.88982,0.24125
1285.40003,0.24121
1283.91024,0.39198
1282.42045,0.47906
1280.93066,0.28327
1279.44087,0.37975
1277.95109,0.43274
1276.46130,0.37385
1274.97151,0.35774
1273.48172,0.34167
1271.99193,0.38858
1270.50214,0.43553
1269.01235,0.55091
1267.52257,0.48136
1266.03278,0.39941
1264.54299,0.55220
1263.05320,0.55736
1261.56341,0.58821
1260.07362,0.61909
1258.58384,0.52333
1257.09405,0.41517
1255.60426,0.46093
1254.11447,0.48652
1252.62468,0.43598
1251.13489,0.38547
1249.64511,0.49977
1248.15532,0.47887
1246.66553,0.55981
1245.17574,0.64080
1243.68595,0.53918
1242.19616,0.47645
1240.70637,0.37491
1239.21659,0.31381
1237.72680,0.22166
1236.23701,0.40934
1234.74722,0.38876
1233.25743,0.44983
1231.76764,0.51093
1230.27786,0.52155
1228.78807,0.52599
1227.29828,0.41699
1225.80849,0.44482
1224.31870,0.25352
1222.82891,0.22079
1221.33912,0.18189
1219.84934,0.24250
1218.35955,0.30315
1216.86976,0.47886
1215.37997,0.39813
1213.89018,0.27547
1212.40039,0.47305
1210.91061,0.52610
1209.42082,0.44086
1207.93103,0.35254
1206.44124,0.26426
1204.95145,0.21487
1203.46166,0.28987
1201.97188,0.18926
1200.48209,0.20526
1198.99230,0.17778
1197.50251,0.32598
1196.01272,0.10583
1194.52293,0.28285
1193.03314,0.45991
1191.54336,0.60670
1190.05357,0.80482
1188.56378,0.64391
1187.07399,0.29652
1185.58420,0.06263
1184.09441,0.02307
1182.60463,0.10013
1181.11484,0.17722
1179.62505,0.46419
1178.13526,0.46830
1176.64547,0.68695
1175.15568,0.52481
1173.66589,0.43266
1172.17611,0.38873
1170.68632,0.37514
1169.19653,0.36159
1167.70674,0.58201
1166.21695,0.76205
1164.72716,0.65924
1163.23738,0.60153
1161.74759,0.51278
1160.25780,0.40230
1158.76801,0.54210
1157.27822,0.68195
1155.78843,0.72857
1154.29865,0.78299
1152.80886,0.95559
1151.31907,0.95257
1149.82928,1.03975
1148.33949,0.80832
1146.84970,0.85826
1145.35991,0.90824
1143.87013,0.70489
1142.38034,0.84043
1140.89055,0.72265
1139.40076,0.90179
1137.91097,1.06541
1136.42118,1.10784
1134.93140,1.07880
1133.44161,1.04979
1131.95182,1.03326
1130.46203,1.14266
1128.97224,1.19148
1127.48245,1.24656
1125.99266,1.35141
1124.50288,1.25889
1123.01309,1.27522
1121.52330,1.29158
1120.03351,1.42766
1118.54372,1.33528
1117.05393,1.34554
1115.56415,1.11490
1114.07436,1.06771
1112.58457,1.10915
1111.09478,1.15064
1109.60499,1.35536
1108.11520,1.37671
1106.62542,1.31260
1105.13563,1.17548
1103.64584,1.11766
1102.15605,1.20288
1100.66626,1.15679
1099.17647,1.11074
1097.68668,1.01421
1096.19690,0.81668
1094.70711,1.01866
1093.21732,1.11187
1091.72753,1.15226
1090.23774,1.18026
1088.74795,1.20829
1087.25817,1.35605
1085.76838,1.56757
1084.27859,1.58949
1082.78880,1.52286
1081.29901,1.49978
1079.80922,1.38036
1078.31943,1.38533
1076.82965,1.39034
1075.33986,1.50108
1073.85007,1.54035
1072.36028,1.59520
1070.87049,1.54284
1069.38070,1.35218
1067.89092,1.32709
1066.40113,1.30204
1064.91134,1.45811
1063.42155,1.44479
1061.93176,1.61647
1060.44197,1.32499
1058.95219,1.22163
1057.46240,1.18435
1055.97261,1.14712
1054.48282,1.23971
1052.99303,1.21887
1051.50324,1.19185
1050.01345,1.13533
1048.52367,1.09284
1047.03388,0.95012
1045.54409,0.80744
1044.05430,0.85210
1042.56451,0.82063
1041.07472,0.70060
1039.58494,0.56817
1038.09515,0.77618
1036.60536,0.81869
1035.11557,0.86123
1033.62578,0.62791
1032.13599,0.58270
1030.64620,0.44272
1029.15642,0.49240
1027.66663,0.53979
1026.17684,0.58721
1024.68705,0.75979
1023.19726,0.87956
1021.70747,1.04290
1020.21769,1.01508
1018.72790,1.48624
1017.23811,1.54942
1015.74832,1.61264
1014.25853,1.72175
1012.76874,1.57132
1011.27896,1.80485
1009.78917,1.86588
1008.29938,1.89119
1006.80959,1.84971
1005.31980,1.80826
1003.83001,2.00000
1002.34022,1.84826
1000.85044,1.78516
999.36065,1.61485
997.87086,1.53083
996.38107,1.44685
994.89128,1.43830
993.40149,1.64895
991.91171,1.52855
990.42192,1.23410
988.93213,1.11844
987.44234,1.04944
985.95255,0.98048
984.46276,1.12606
982.97297,1.24059
981.48319,1.01941
979.99340,0.80449
978.50361,0.72250
977.01382,0.64054
975.52403,0.78634
974.03424,0.69902
972.54446,0.71587
971.05467,0.55090
969.56488,0.25230
968.07509,0.28403
966.58530,0.31579
965.09551,0.25822
963.60573,0.12141
962.11594,0.25354
960.62615,0.17120
959.13636,0.20004
957.64657,0.22892
956.15678,0.24772
954.66699,0.17797
953.17721,0.18130
951.68742,0.25151
950.19763,0.17798
948.70784,0.10448
947.21805,0.04578
945.72826,0.02909
944.23848,0.00000
942.74869,0.22686
941.25890,0.29366
939.76911,0.28044
938.27932,0.26726
936.78953,0.30930
935.29974,0.21770
933.80996,0.38882
932.32017,0.45428
930.83038,0.52599
929.34059,0.59774
927.85080,0.67885
926.36101,0.68073
924.87123,0.74637
923.38144,0.66593
921.89165,0.61429
920.40186,0.56268
918.91207,0.52743
917.42228,0.74403
915.93250,0.62180
914.44271,0.65661
912.95292,0.59819
911.46313,0.53980
909.97334,0.42861
908.48355,0.39827
906.99376,0.26228
905.50398,0.18228
904.01419,0.13262
902.52440,0.08300
901.03461,0.00000
899.54482,0.07264
898.05503,0.24790
896.56525,0.32372
895.07546,0.35139
893.58567,0.37910
892.09588,0.35400
890.60609,0.38333
889.11630,0.47332
887.62651,0.51050
886.13673,0.58579
884.64694,0.66112
883.15715,0.59116
881.66736,0.48703
880.17757,0.60988
878.68778,0.67836
877.19800,0.74688
875.70821,0.92734
874.21842,0.79387
872.72863,0.86094
871.23884,1.15809
869.74905,1.15995
868.25927,1.16184
866.76948,1.21196
865.27969,1.22947
863.78990,1.23614
862.30011,1.14026
860.81032,1.21150
859.32053,1.28278
857.83075,1.25384
856.34096,1.31198
854.85117,1.20851
853.36138,1.02113
851.87159,0.93638
850.38180,0.85166
848.89202,0.90066
847.40223,0.80358
845.91244,0.77959
844.42265,0.69890
842.93286,0.61825
841.44307,0.39697
839.95329,0.49437
838.46350,0.51874
836.97371,0.54316
835.48392,0.45025
833.99413,0.35739
832.50434,0.26844
831.01455,0.07228
829.52477,0.30982
828.03498,0.44481
826.54519,0.43683
825.05540,0.42889
823.56561,0.45985
822.07582,0.24525
820.58604,0.15659
819.09625,0.19776
817.60646,0.23896
816.11667,0.19860
814.62688,0.03236
813.13709,0.07912
811.64730,0.00000
810.15752,0.01488
808.66773,0.02979
807.17794,0.16132
805.68815,0.28044
804.19836,0.12448
802.70857,0.19705
801.21879,0.26966
799.72900,0.15577
798.23921,0.12275
796.74942,0.16127
795.25963,0.20293
793.76984,0.24463
792.28006,0.01901
790.79027,0.12296
789.30048,0.00000
787.81069,0.27516
786.32090,0.18897
784.83111,0.10282
783.34132,0.01592
781.85154,0.07983
780.36175,0.06140
778.87196,0.03989
777.38217,0.01843
775.89238,0.09803
774.40259,0.07663
772.91281,0.21070
771.42302,0.18705
769.93323,0.16343
768.44344,0.21678
766.95365,0.13028
765.46386,0.10444
763.97407,0.01957
762.48429,0.10105
760.99450,0.18256
759.50471,0.19572
758.01492,0.05348
756.52513,0.13510
755.03534,0.14759
753.54556,0.16012
752.05577,0.19367
750.56598,0.14798
749.07619,0.35724
747.58640,0.34426
746.09661,0.33132
744.60683,0.30443
743.11704,0.27757
741.62725,0.21500
740.13746,0.25350
738.64767,0.29203
737.15788,0.11921
735.66809,0.21066
734.17831,0.24775
732.68852,0.23513
731.19873,0.22255
729.70894,0.34369
728.21915,0.28455
726.72936,0.41041
725.23958,0.44150
723.74979,0.38480
722.26000,0.32814
720.77021,0.21633
719.28042,0.43875
717.79063,0.40473
716.30084,0.41194
714.81106,0.41919
713.32127,0.35108
711.83148,0.35918
710.34169,0.50876
708.85190,0.48118
707.36211,0.45363
705.87233,0.57534
704.38254,0.51988
702.89275,0.49711
701.40296,0.49302
699.91317,0.48897
698.42338,0.36682
696.93360,0.33020
695.44381,0.39621
693.95402,0.58115
692.46423,0.76614
690.97444,0.80583
689.48465,0.69167
687.99486,0.69723
686.50508,0.69117
685.01529,0.68515
683.52550,0.72191
682.03571,0.89393
680.54592,0.82351
679.05613,0.78499
677.56635,0.74651
676.07656,0.78034
674.58677,0.70385
673.09698,0.76417
671.60719,0.67609
670.11740,0.58805
668.62761,0.35627
667.13783,0.44471
665.64804,0.45626
664.15825,0.46784
662.66846,0.59059
661.17867,0.63411
659.68888,0.51134
658.19910,0.47411
656.70931,0.43691
655.21952,0.41684
653.72973,0.57400
652.23994,0.76074
650.75015,0.69881
649.26037,0.63692
647.77058,0.43828
646.28079,0.43086
644.79100,0.48410
643.30121,0.51018
641.81142,0.53629
640.32163,0.43420
638.83185,0.31194
637.34206,0.39955
635.85227,0.41804
634.36248,0.43656
632.87269,0.37040
631.38290,0.40220
629.89312,0.47912
628.40333,0.46281
626.91354,0.44653
625.42375,0.53910
623.93396,0.59595
622.44417,0.58445
620.95438,0.57298
619.46460,0.54135
617.97481,0.53772
616.48502,0.70200
614.99523,0.64327
613.50544,0.58458
612.01565,0.42566
610.52587,0.60875
609.03608,0.54627
607.54629,0.55145
606.05650,0.55667
604.56671,0.58290
603.07692,0.57653
601.58714,0.63703
600.09735,0.69757
598.60756,0.79700
597.11777,0.73793
595.62798,0.65868
594.13819,0.63543
592.64840,0.61221
591.15862,0.54240
589.66883,0.66847
588.17904,0.72153
586.68925,0.74897
585.19946,0.77645
583.70967,0.68661
582.21989,0.73204
580.73010,0.67336
579.24031,0.61472
577.75052,0.66647
576.26073,0.65453
574.77094,0.83070
573.28115,0.78464
571.79137,0.73861
570.30158,0.74858
568.81179,0.84718
567.32200,0.86654
565.83221,0.88594
564.34242,1.05615
562.85264,1.02588
561.36285,1.13865
559.87306,1.05250
558.38327,0.96638
556.89348,1.12900
555.40369,1.33517
553.91391,1.41237
552.42412,1.48961
550.93433,1.57776
549.44454,1.50740
547.95475,1.46506
546.46496,1.41420
544.97517,1.36338
543.48539,1.27763
541.99560,1.48568
540.50581,1.49870
539.01602,1.51175
537.52623,1.33132
536.03644,1.42916
534.54666,1.52393
533.05687,1.51459
531.56708,1.50528
530.07729,1.42296
528.58750,1.27695
527.09771,1.32371
525.60792,1.37050
524.11814,1.28677
522.62835,1.36784
521.13856,1.18003
519.64877,1.05444
518.15898,0.92888
516.66919,0.89507
515.17941,0.72917
513.68962,0.81356
512.19983,0.89798
510.71004,1.11768
509.22025,1.22083
507.73046,1.03956
506.24068,1.02310
504.75089,1.00667
503.26110,0.94210
501.77131,0.92574
500.28152,0.95916
498.79173,0.99262
497.30194,0.86290
495.81216,0.99125
494.32237,0.92922
492.83258,0.86723
491.34279,0.77962
489.85300,0.68584
488.36321,0.67913
486.87343,0.67480
485.38364,0.67049
483.89385,0.54110
482.40406,0.50967
480.91427,0.47672
479.42448,0.44381
477.93469,0.39384
476.44491,0.20090
474.95512,0.20850
473.46533,0.21615
471.97554,0.27357
470.48575,0.26264
468.99596,0.11340
467.50618,0.05668
466.01639,0.00000
464.52660,0.12719
463.03681,0.31971
461.54702,0.26900
460.05723,0.21833
458.56745,0.22753
457.07766,0.28963
455.58787,0.38673
454.09808,0.48386
452.60829,0.48233
451.11850,0.48239
449.62871,0.54311
448.13893,0.60386
446.64914,0.81232
445.15935,0.82029
443.66956,0.84230
442.17977,0.87521
440.68998,0.90817
439.20020,0.77640
437.71041,0.75191
436.22062,0.78809
434.73083,0.82429
433.24104,0.91183
431.75125,0.89371
430.26146,0.81112
428.77168,0.72856
427.28189,0.64681
425.79210,0.82002
424.30231,0.86348
422.81252,0.90697
421.32273,0.75076
419.83295,0.76712
418.34316,0.84025
416.85337,0.91342
415.36358,0.93455
413.87379,0.93551
412.38400,0.89455
410.89422,0.85361
409.40443,0.95882
407.91464,0.70035
406.42485,0.53673
404.93506,0.46175
403.44527,0.38680
401.95548,0.38960
400.46570,0.49658
398.97591,0.51345
397.48612,0.53035
395.99633,0.32657
394.50654,0.18189
393.01675,0.17636
391.52697,0.17087
390.03718,0.42111
388.54739,0.38072
387.05760,0.51445
385.56781,0.64821
384.07802,0.40897
382.58824,0.25370
381.09845,0.22592
379.60866,0.19818
378.11887,0.21710
376.62908,0.20342
375.13929,0.16491
373.64950,0.12643
372.15972,0.21700
370.66993,0.28118
369.18014,0.25058
367.69035,0.22002
366.20056,0.21747
364.71077,0.31133
363.22099,0.24979
361.73120,0.18829
360.24141,0.24961
358.75162,0.07316
357.26183,0.09958
355.77204,0.12604
354.28225,0.28233
352.79247,0.21948
351.30268,0.16678
349.81289,0.11411
348.32310,0.27831
346.83331,0.21717
345.34352,0.20658
343.85374,0.19602
342.36395,0.18472
340.87416,0.09574
339.38437,0.12159
337.89458,0.14748
336.40479,0.27366
334.91501,0.26931
333.42522,0.19816
331.93543,0.12704
330.44564,0.00000
328.95585,0.07323
327.46606,0.13406
325.97627,0.19493
324.48649,0.26515
322.99670,0.11003
321.50691,0.05633
320.01712,0.00265
318.52733,0.10057
317.03754,0.19852
315.54776,0.16516
314.05797,0.13183
312.56818,0.26409
311.07839,0.20208
309.58860,0.16731
308.09881,0.13258
306.60902,0.18881
305.11924,0.05390
303.62945,0.10476
302.13966,0.12270
300.64987,0.00000
299.16008,0.00000
