1778.52000,0.01842
1777.03021,0.00808
1775.54042,0.03955
1774.05063,0.04619
1772.56085,0.02665
1771.07106,0.06181
1769.58127,0.08458
1768.09148,0.06517
1766.60169,0.05870
1765.11190,0.08115
1763.62212,0.05077
1762.13233,0.07821
1760.64254,0.10791
1759.15275,0.09544
1757.66296,0.11367
1756.17317,0.05197
1754.68339,0.00808
1753.19360,0.07311
1751.70381,0.05998
1750.21402,0.05222
1748.72423,0.05429
1747.23444,0.07950
1745.74465,0.08299
1744.25487,0.06519
1742.76508,0.05988
1741.27529,0.05640
1739.78550,0.04584
1738.29571,0.05578
1736.80592,0.05154
1735.31614,0.04867
1733.82635,0.03030
1732.33656,0.02930
1730.84677,0.03013
1729.35698,0.04700
1727.86719,0.00659
1726.37740,0.02977
1724.88762,0.00989
1723.39783,0.02427
1721.90804,0.01026
1720.41825,0.02029
1718.92846,0.04458
1717.43867,0.05070
1715.94889,0.06309
1714.45910,0.07907
1712.96931,0.04889
1711.47952,0.00808
1709.98973,0.05483
1708.49994,0.04608
1707.01016,0.04048
1705.52037,0.03493
1704.03058,0.05076
1702.54079,0.03508
1701.05100,0.03944
1699.56121,0.04562
1698.07142,0.06696
1696.58164,0.04879
1695.09185,0.07955
1693.60206,0.09080
1692.11227,0.09143
1690.62248,0.13477
1689.13269,0.11593
1687.64291,0.08470
1686.15312,0.09618
1684.66333,0.11526
1683.17354,0.12371
1681.68375,0.10421
1680.19396,0.18386
1678.70417,0.13601
1677.21439,0.08243
1675.72460,0.07689
1674.23481,0.08740
1672.74502,0.12683
1671.25523,0.14453
1669.76544,0.11384
1668.27566,0.07297
1666.78587,0.08637
1665.29608,0.07136
1663.80629,0.10084
1662.31650,0.12326
1660.82671,0.14528
1659.33693,0.10068
1657.84714,0.09612
1656.35735,0.02273
1654.86756,0.01471
1653.37777,0.04228
1651.88798,0.06190
1650.39819,0.08112
1648.90841,0.08795
1647.41862,0.02816
1645.92883,0.03262
1644.43904,0.03714
1642.94925,0.05036
1641.45946,0.07074
1639.96968,0.08983
1638.47989,0.16185
1636.99010,0.12237
1635.50031,0.09227
1634.01052,0.10043
1632.52073,0.09930
1631.03094,0.08044
1629.54116,0.06074
1628.05137,0.04686
1626.56158,0.03792
1625.07179,0.03124
1623.58200,0.07260
1622.09221,0.07757
1620.60243,0.07147
1619.11264,0.11563
1617.62285,0.10162
1616.13306,0.08232
1614.64327,0.10929
1613.15348,0.11630
1611.66370,0.10025
1610.17391,0.12513
1608.68412,0.13050
1607.19433,0.15280
1605.70454,0.13337
1604.21475,0.15310
1602.72496,0.17287
1601.23518,0.12869
1599.74539,0.12411
1598.25560,0.12446
1596.76581,0.10619
1595.27602,0.05642
1593.78623,0.09157
1592.29645,0.05121
1590.80666,0.05312
1589.31687,0.04352
1587.82708,0.07752
1586.33729,0.05112
1584.84750,0.07588
1583.35771,0.07312
1581.86793,0.10108
1580.37814,0.08508
1578.88835,0.07757
1577.39856,0.09455
1575.90877,0.06625
1574.41898,0.03621
1572.92920,0.00000
1571.43941,0.00790
1569.94962,0.01673
1568.45983,0.02561
1566.97004,0.05676
1565.48025,0.01773
1563.99047,0.00808
1562.50068,0.05499
1561.01089,0.04950
1559.52110,0.02006
1558.03131,0.03866
1556.54152,0.05687
1555.05173,0.04845
1553.56195,0.00808
1552.07216,0.02349
1550.58237,0.05672
1549.09258,0.05000
1547.60279,0.02332
1546.11300,0.02736
1544.62322,0.02833
1543.13343,0.06222
1541.64364,0.06417
1540.15385,0.06505
1538.66406,0.06598
1537.17427,0.07828
1535.68448,0.03819
1534.19470,0.03014
1532.70491,0.02214
1531.21512,0.00218
1529.72533,0.04925
1528.23554,0.01283
1526.74575,0.02178
1525.25597,0.08809
1523.76618,0.09002
1522.27639,0.10399
1520.78660,0.09312
1519.29681,0.00808
1517.80702,0.05124
1516.31724,0.02157
1514.82745,0.04794
1513.33766,0.07080
1511.84787,0.09370
1510.35808,0.06554
1508.86829,0.04276
1507.37850,0.05069
1505.88872,0.01111
1504.39893,0.01068
1502.90914,0.00808
1501.41935,0.00957
1499.92956,0.04131
1498.43977,0.06777
1496.94999,0.14138
1495.46020,0.17149
1493.97041,0.25230
1492.48062,0.23272
1490.99083,0.34517
1489.50104,0.35191
1488.01125,0.39424
1486.52147,0.43661
1485.03168,0.39637
1483.54189,0.51882
1482.05210,0.61999
1480.56231,0.64433
1479.07252,0.73669
1477.58274,0.83222
1476.09295,0.85047
1474.60316,0.91675
1473.11337,0.95864
1471.62358,1.01924
1470.13379,0.98078
1468.64401,1.02548
1467.15422,0.91601
1465.66443,0.88747
1464.17464,0.85897
1462.68485,0.78608
1461.19506,0.70034
1459.70527,0.59154
1458.21549,0.50945
1456.72570,0.50696
1455.23591,0.44051
1453.74612,0.40966
1452.25633,0.35619
1450.76654,0.28721
1449.27676,0.20451
1447.78697,0.18850
1446.29718,0.15965
1444.80739,0.15751
1443.31760,0.15542
1441.82781,0.16137
1440.33802,0.14781
1438.84824,0.09119
1437.35845,0.11105
1435.86866,0.02030
1434.37887,0.07269
1432.88908,0.07047
1431.39929,0.08962
1429.90951,0.05949
1428.41972,0.11206
1426.92993,0.14067
1425.44014,0.08090
1423.95035,0.07139
1422.46056,0.06193
1420.97078,0.09428
1419.48099,0.11868
1417.99120,0.20978
1416.50141,0.18983
1415.01162,0.16148
1413.52183,0.12340
1412.03204,0.13159
1410.54226,0.17181
1409.05247,0.19563
1407.56268,0.18173
1406.07289,0.24875
1404.58310,0.26493
1403.09331,0.28116
1401.60353,0.31765
1400.11374,0.35508
1398.62395,0.35255
1397.13416,0.40296
1395.64437,0.41252
1394.15458,0.44302
1392.66479,0.52688
1391.17501,0.45170
1389.68522,0.48100
1388.19543,0.48368
1386.70564,0.48485
1385.21585,0.48606
1383.72606,0.49421
1382.23628,0.53217
1380.74649,0.49953
1379.25670,0.52336
1377.76691,0.53080
1376.27712,0.56139
1374.78733,0.58314
1373.29755,0.65514
1371.80776,0.66232
1370.31797,0.71886
1368.82818,0.76612
1367.33839,0.81342
1365.84860,0.88654
1364.35881,0.93749
1362.86903,1.01070
1361.37924,0.98575
1359.88945,1.03861
1358.39966,0.99864
1356.90987,1.05248
1355.42008,1.03348
1353.93030,0.92610
1352.44051,0.89186
1350.95072,0.85767
1349.46093,0.82907
1347.97114,0.74453
1346.48135,0.71825
1344.99156,0.61692
1343.50178,0.54629
1342.01199,0.49970
1340.52220,0.49848
1339.03241,0.49020
1337.54262,0.52774
1336.05283,0.48222
1334.56305,0.43675
1333.07326,0.34466
1331.58347,0.35349
1330.09368,0.30770
1328.60389,0.29974
1327.11410,0.30959
1325.62432,0.27105
1324.13453,0.23034
1322.64474,0.16834
1321.15495,0.16726
1319.66516,0.14957
1318.17537,0.13192
1316.68558,0.11231
1315.19580,0.12830
1313.70601,0.19411
1312.21622,0.12131
1310.72643,0.11700
1309.23664,0.07362
1307.74685,0.11694
1306.25707,0.10121
1304.76728,0.09685
1303.27749,0.09254
1301.78770,0.09738
1300.29791,0.10049
1298.80812,0.08853
1297.31834,0.09306
1295.82855,0.16163
1294.33876,0.23425
1292.84897,0.23536
1291.35918,0.29117
1289.86939,0.26771
1288.37960,0.24429
1286.88982,0.28203
1285.40003,0.29403
1283.91024,0.33629
1282.42045,0.30617
1280.93066,0.33341
1279.44087,0.34648
1277.95109,0.35649
1276.46130,0.34343
1274.97151,0.35841
1273.48172,0.37344
1271.99193,0.37651
1270.50214,0.43829
1269.01235,0.41879
1267.52257,0.41178
1266.03278,0.42081
1264.54299,0.48766
1263.05320,0.36302
1261.56341,0.38418
1260.07362,0.40539
1258.58384,0.42176
1257.09405,0.39906
1255.60426,0.37819
1254.11447,0.37780
1252.62468,0.32813
1251.13489,0.37361
1249.64511,0.37291
1248.15532,0.32960
1246.66553,0.32989
1245.17574,0.33021
1243.68595,0.28926
1242.19616,0.28968
1240.70637,0.30081
1239.21659,0.23154
1237.72680,0.19210
1236.23701,0.21048
1234.74722,0.20490
1233.25743,0.20025
1231.76764,0.19565
1230.27786,0.17821
1228.78807,0.17414
1227.29828,0.26744
1225.80849,0.23103
1224.31870,0.19955
1222.82891,0.15478
1221.33912,0.14160
1219.84934,0.11736
1218.35955,0.09317
1216.86976,0.17568
1215.37997,0.17290
1213.89018,0.14440
1212.40039,0.23460
1210.91061,0.17508
1209.42082,0.15115
1207.93103,0.12728
1206.44124,0.10344
1204.95145,0.05032
1203.46166,0.06880
1201.97188,0.03666
1200.48209,0.01434
1198.99230,0.07694
1197.50251,0.05604
1196.01272,0.00808
1194.52293,0.01424
1193.03314,0.02044
1191.54336,0.08046
1190.05357,0.09520
1188.56378,0.08821
1187.07399,0.07415
1185.58420,0.01792
1184.09441,0.01773
1182.60463,0.04580
1181.11484,0.07392
1179.62505,0.05253
1178.13526,0.06318
1176.64547,0.07033
1175.15568,0.09574
1173.66589,0.12519
1172.17611,0.17468
1170.68632,0.16290
1169.19653,0.15116
1167.70674,0.18834
1166.21695,0.21180
1164.72716,0.24241
1163.23738,0.13086
1161.74759,0.20467
1160.25780,0.21675
1158.76801,0.22776
1157.27822,0.23882
1155.78843,0.33325
1154.29865,0.35751
1152.80886,0.37382
1151.31907,0.41372
1149.82928,0.42612
1148.33949,0.44033
1146.84970,0.45238
1145.35991,0.46446
1143.87013,0.47171
1142.38034,0.44300
1140.89055,0.49121
1139.40076,0.53903
1137.91097,0.65933
1136.42118,0.68368
1134.93140,0.71675
1133.44161,0.74986
1131.95182,0.78057
1130.46203,0.80599
1128.97224,0.85057
1127.48245,0.93785
1125.99266,0.97985
1124.50288,0.99746
1123.01309,0.99844
1121.52330,0.99947
1120.03351,0.93855
1118.54372,0.90168
1117.05393,0.84352
1115.56415,0.88894
1114.07436,0.90153
1112.58457,0.90171
1111.09478,0.90195
1109.60499,0.86312
1108.11520,0.92966
1106.62542,0.90603
1105.13563,0.86911
1103.64584,0.83491
1102.15605,0.82030
1100.66626,0.79063
1099.17647,0.76101
1097.68668,0.75364
1096.19690,0.74899
1094.70711,0.80971
1093.21732,0.86381
1091.72753,0.96462
1090.23774,0.96170
1088.74795,0.95883
1087.25817,1.09843
1085.76838,1.17053
1084.27859,1.17913
1082.78880,1.11756
1081.29901,1.14580
1079.80922,1.17675
1078.31943,1.16664
1076.82965,1.15657
1075.33986,1.21121
1073.85007,1.23345
1072.36028,1.27663
1070.87049,1.27985
1069.38070,1.24268
1067.89092,1.25644
1066.40113,1.27024
1064.91134,1.28253
1063.42155,1.21488
1061.93176,1.19038
1060.44197,1.15214
1058.95219,1.15039
1057.46240,1.13714
1055.97261,1.12392
1054.48282,1.09431
1052.99303,1.01898
1051.50324,0.95124
1050.01345,0.82444
1048.52367,0.76657
1047.03388,0.71963
1045.54409,0.67274
1044.05430,0.58612
1042.56451,0.47999
1041.07472,0.43390
1039.58494,0.41318
1038.09515,0.42272
1036.60536,0.42698
1035.11557,0.43128
1033.62578,0.40897
1032.13599,0.40314
1030.64620,0.36758
1029.15642,0.33607
1027.66663,0.37082
1026.17684,0.40561
1024.68705,0.60576
1023.19726,0.69574
1021.70747,0.91020
1020.21769,1.10914
1018.72790,1.34991
1017.23811,1.43385
1015.74832,1.51784
1014.25853,1.60632
1012.76874,1.77572
1011.27896,1.95005
1009.78917,2.00000
1008.29938,1.97889
1006.80959,1.91206
1005.31980,1.84527
1003.83001,1.88785
1002.34022,1.83759
1000.85044,1.81715
999.36065,1.78521
997.87086,1.71842
996.38107,1.65168
994.89128,1.57010
993.40149,1.55210
991.91171,1.47861
990.42192,1.40961
988.93213,1.29354
987.44234,1.29595
985.95255,1.29840
984.46276,1.33178
982.97297,1.26034
981.48319,1.10717
979.99340,0.92383
978.50361,0.89940
977.01382,0.87501
975.52403,0.85489
974.03424,0.79527
972.54446,0.70814
971.05467,0.62061
969.56488,0.53357
968.07509,0.49635
966.58530,0.45917
965.09551,0.39759
963.60573,0.39028
962.11594,0.34879
960.62615,0.27979
959.13636,0.25795
957.64657,0.23615
956.15678,0.25839
954.66699,0.20068
953.17721,0.25767
951.68742,0.22183
950.19763,0.22336
948.70784,0.22494
947.21805,0.20790
945.72826,0.27356
944.23848,0.34948
942.74869,0.37479
941.25890,0.44236
939.76911,0.45176
938.27932,0.46121
936.78953,0.47959
935.29974,0.55623
933.80996,0.70579
932.32017,0.78785
930.83038,0.78152
929.34059,0.77524
927.85080,0.83166
926.36101,0.83969
924.87123,0.90376
923.38144,0.90476
921.89165,0.90604
920.40186,0.90736
918.91207,0.94139
917.42228,0.95502
915.93250,0.84427
914.44271,0.82466
912.95292,0.79932
911.46313,0.77402
909.97334,0.69900
908.48355,0.64446
906.99376,0.43311
905.50398,0.34667
904.01419,0.36070
902.52440,0.37478
901.03461,0.33469
899.54482,0.41196
898.05503,0.39863
896.56525,0.41155
895.07546,0.43052
893.58567,0.44954
892.09588,0.50926
890.60609,0.56103
889.11630,0.53063
887.62651,0.66603
886.13673,0.68417
884.64694,0.70234
883.15715,0.81610
881.66736,0.88236
880.17757,0.98199
878.68778,1.00057
877.19800,1.01919
875.70821,1.06119
874.21842,1.17389
872.72863,1.24175
871.23884,1.37764
869.74905,1.43737
868.25927,1.49715
866.76948,1.45098
865.27969,1.54395
863.78990,1.59342
862.30011,1.65937
860.81032,1.63294
859.32053,1.60655
857.83075,1.61042
856.34096,1.57213
854.85117,1.47122
853.36138,1.44012
851.87159,1.33063
850.38180,1.22119
848.89202,1.14224
847.40223,1.08510
845.91244,0.97646
844.42265,0.90964
842.93286,0.84286
841.44307,0.64192
839.95329,0.55480
838.46350,0.55348
836.97371,0.50688
835.48392,0.48921
833.99413,0.47158
832.50434,0.34335
831.01455,0.33159
829.52477,0.33765
828.03498,0.33887
826.54519,0.36057
825.05540,0.38232
823.56561,0.36457
822.07582,0.30686
820.58604,0.23054
819.09625,0.19292
817.60646,0.15535
816.11667,0.12493
814.62688,0.02212
813.13709,0.06645
811.64730,0.03573
810.15752,0.02904
808.66773,0.02240
807.17794,0.06202
805.68815,0.06880
804.19836,0.00808
802.70857,0.04863
801.21879,0.08922
799.72900,0.09653
798.23921,0.10344
796.74942,0.04863
795.25963,0.06674
793.76984,0.08490
792.28006,0.11021
790.79027,0.11290
789.30048,0.09341
787.81069,0.06242
786.32090,0.04681
784.83111,0.03124
783.34132,0.01593
781.85154,0.03800
780.36175,0.04945
778.87196,0.05206
777.38217,0.05471
775.89238,0.00808
774.40259,0.05148
772.91281,0.05581
771.42302,0.06841
769.93323,0.08106
768.44344,0.09797
766.95365,0.03005
765.46386,0.01061
763.97407,0.02042
762.48429,0.03561
760.99450,0.05084
759.50471,0.07856
758.01492,0.08277
756.52513,0.08081
755.03534,0.07444
753.54556,0.06812
752.05577,0.00808
750.56598,0.02419
749.07619,0.07062
747.58640,0.07644
746.09661,0.08230
744.60683,0.02799
743.11704,0.05238
741.62725,0.10793
740.13746,0.10175
738.64767,0.09562
737.15788,0.07664
735.66809,0.01327
734.17831,0.04949
732.68852,0.08464
731.19873,0.11984
729.70894,0.05931
728.21915,0.08771
726.72936,0.04327
725.23958,0.03888
723.74979,0.03853
722.26000,0.03822
720.77021,0.01041
719.28042,0.10678
717.79063,0.13876
716.30084,0.16168
714.81106,0.18465
713.32127,0.14033
711.83148,0.16183
710.34169,0.16693
708.85190,0.14119
707.36211,0.11550
705.87233,0.11540
704.38254,0.15223
702.89275,0.12867
701.40296,0.11027
699.91317,0.09191
698.42338,0.16225
696.93360,0.09932
695.44381,0.17064
693.95402,0.21801
692.46423,0.26542
690.97444,0.27955
689.48465,0.29061
687.99486,0.25506
686.50508,0.29954
685.01529,0.34407
683.52550,0.38286
682.03571,0.32394
680.54592,0.33616
679.05613,0.31110
677.56635,0.28608
676.07656,0.25222
674.58677,0.25307
673.09698,0.20286
671.60719,0.16558
670.11740,0.12834
668.62761,0.09559
667.13783,0.11355
665.64804,0.08156
664.15825,0.04962
662.66846,0.10104
661.17867,0.06630
659.68888,0.07293
658.19910,0.07160
656.70931,0.07032
655.21952,0.04420
653.72973,0.09234
652.23994,0.14096
650.75015,0.10165
649.26037,0.06238
647.77058,0.01293
646.28079,0.04085
644.79100,0.03326
643.30121,0.04661
641.81142,0.06000
640.32163,0.03255
638.83185,0.07269
637.34206,0.02845
635.85227,0.01824
634.36248,0.00808
632.87269,0.01180
631.38290,0.02223
629.89312,0.03493
628.40333,0.04145
626.91354,0.04802
625.42375,0.03907
623.93396,0.04706
622.44417,0.08820
620.95438,0.12939
619.46460,0.06064
617.97481,0.08836
616.48502,0.10857
614.99523,0.08794
613.50544,0.06736
612.01565,0.11126
610.52587,0.12854
609.03608,0.17476
607.54629,0.15502
606.05650,0.13533
604.56671,0.19056
603.07692,0.19696
601.58714,0.17207
600.09735,0.14723
598.60756,0.15376
597.11777,0.17589
595.62798,0.16963
594.13819,0.14230
592.64840,0.11501
591.15862,0.12799
589.66883,0.15301
588.17904,0.20741
586.68925,0.23652
585.19946,0.26567
583.70967,0.30598
582.21989,0.22857
580.73010,0.24187
579.24031,0.25520
577.75052,0.24992
576.26073,0.39178
574.77094,0.43013
573.28115,0.37744
571.79137,0.32479
570.30158,0.42149
568.81179,0.51513
567.32200,0.51928
565.83221,0.52346
564.34242,0.65235
562.85264,0.70795
561.36285,0.71871
559.87306,0.77485
558.38327,0.83104
556.89348,0.98281
555.40369,1.10885
553.91391,1.13028
552.42412,1.15176
550.93433,1.28949
549.44454,1.27173
547.95475,1.28335
546.46496,1.27145
544.97517,1.25961
543.48539,1.23047
541.99560,1.24004
540.50581,1.24255
539.01602,1.24510
537.52623,1.24859
536.03644,1.25523
534.54666,1.25214
533.05687,1.27531
531.56708,1.29853
530.07729,1.27958
528.58750,1.11714
527.09771,1.13227
525.60792,1.14745
524.11814,1.09534
522.62835,0.98863
521.13856,0.95350
519.64877,0.88509
518.15898,0.81673
516.66919,0.78351
515.17941,0.81523
513.68962,0.81054
512.19983,0.80591
510.71004,0.87553
509.22025,0.95497
507.73046,0.84115
506.24068,0.86091
504.75089,0.88071
503.26110,0.84035
501.77131,0.83869
500.28152,0.84108
498.79173,0.84351
497.30194,0.75489
495.81216,0.78052
494.32237,0.85086
492.83258,0.92124
491.34279,0.73015
489.85300,0.65908
488.36321,0.62272
486.87343,0.58263
485.38364,0.54259
483.89385,0.49925
482.40406,0.41775
480.91427,0.37939
479.42448,0.34108
477.93469,0.30370
476.44491,0.15972
474.95512,0.10377
473.46533,0.04786
471.97554,0.08932
470.48575,0.07750
468.99596,0.08794
467.50618,0.04799
466.01639,0.00808
464.52660,0.08884
463.03681,0.25230
461.54702,0.29115
460.05723,0.33005
458.56745,0.31501
457.07766,0.37955
455.58787,0.40725
454.09808,0.43500
452.60829,0.51434
451.11850,0.64794
449.62871,0.69804
448.13893,0.74819
446.64914,0.88948
445.15935,0.95082
443.66956,0.92200
442.17977,0.94722
440.68998,0.97249
439.20020,0.92203
437.71041,0.91116
436.22062,0.91634
434.73083,0.92157
433.24104,0.98060
431.75125,1.02991
430.26146,0.99061
428.77168,0.95135
427.28189,0.97369
425.79210,1.04228
424.30231,1.06760
422.81252,1.09296
421.32273,1.03193
419.83295,1.10381
418.34316,1.14353
416.85337,1.18329
415.36358,1.06867
413.87379,1.07852
412.38400,1.09953
410.89422,1.12058
409.40443,1.01680
407.91464,0.76243
406.42485,0.64985
404.93506,0.59798
403.44527,0.54616
401.95548,0.52615
400.46570,0.50797
398.97591,0.50027
397.48612,0.49262
395.99633,0.36525
394.50654,0.28637
393.01675,0.34329
391.52697,0.40026
390.03718,0.48548
388.54739,0.58187
387.05760,0.54365
385.56781,0.50547
384.07802,0.34913
382.58824,0.28038
381.09845,0.24101
379.60866,0.20168
378.11887,0.36815
376.62908,0.19381
375.13929,0.18150
373.64950,0.16924
372.15972,0.11636
370.66993,0.10530
369.18014,0.10828
367.69035,0.11130
366.20056,0.12837
364.71077,0.18637
363.22099,0.22108
361.73120,0.25583
360.24141,0.22020
358.75162,0.11795
357.26183,0.13662
355.77204,0.15534
354.28225,0.15721
352.79247,0.11958
351.30268,0.11221
349.81289,0.10489
348.32310,0.14027
346.83331,0.16014
345.34352,0.11918
343.85374,0.07827
342.36395,0.07453
340.87416,0.19393
339.38437,0.16606
337.89458,0.13824
336.40479,0.12224
334.91501,0.00808
333.42522,0.02131
331.93543,0.03459
330.44564,0.05524
328.95585,0.19992
327.46606,0.19867
325.97627,0.19746
324.48649,0.13119
322.99670,0.08053
321.50691,0.04482
320.01712,0.00917
318.52733,0.09376
317.03754,0.04197
315.54776,0.04000
314.05797,0.03807
312.56818,0.16862
311.07839,0.24544
309.58860,0.19921
308.09881,0.15302
306.60902,0.05933
305.11924,0.04568
303.62945,0.06473
302.13966,0.00808
300.64987,0.06783
299.16008,0.00808
