1778.52000,0.36836
1777.03021,0.37201
1775.54042,0.20495
1774.05063,0.31614
1772.56085,0.05656
1771.07106,0.14841
1769.58127,0.23061
1768.09148,0.20554
1766.60169,0.00000
1765.11190,0.24351
1763.62212,0.32608
1762.13233,0.32578
1760.64254,0.21821
1759.15275,0.40353
1757.66296,0.55967
1756.17317,0.08639
1754.68339,0.22807
1753.19360,0.05753
1751.70381,0.46292
1750.21402,0.06809
1748.72423,0.37118
1747.23444,0.21565
1745.74465,0.04070
1744.25487,0.12447
1742.76508,0.10586
1741.27529,0.22886
1739.78550,0.22995
1738.29571,0.17746
1736.80592,0.25195
1735.31614,0.28748
1733.82635,0.46950
1732.33656,0.35394
1730.84677,0.30680
1729.35698,0.18166
1727.86719,0.12982
1726.37740,0.00000
1724.88762,0.00708
1723.39783,0.20945
1721.90804,0.37287
1720.41825,0.26311
1718.92846,0.27057
1717.43867,0.40987
1715.94889,0.31991
1714.45910,0.30812
1712.96931,0.39402
1711.47952,0.48490
1709.98973,0.35139
1708.49994,0.14478
1707.01016,0.12857
1705.52037,0.11246
1704.03058,0.52100
1702.54079,0.20740
1701.05100,0.23061
1699.56121,0.20023
1698.07142,0.18459
1696.58164,0.18856
1695.09185,0.38781
1693.60206,0.29437
1692.11227,0.59141
1690.62248,0.36639
1689.13269,0.30251
1687.64291,0.42903
1686.15312,0.21893
1684.66333,0.41396
1683.17354,0.18453
1681.68375,0.41879
1680.19396,0.27738
1678.70417,0.25806
1677.21439,0.27788
1675.72460,0.11723
1674.23481,0.07867
1672.74502,0.29397
1671.25523,0.33368
1669.76544,0.33932
1668.27566,0.20842
1666.78587,0.18008
1665.29608,0.27872
1663.80629,0.43602
1662.31650,0.54460
1660.82671,0.38489
1659.33693,0.54246
1657.84714,0.23164
1656.35735,0.21373
1654.86756,0.22518
1653.37777,0.30504
1651.88798,0.10684
1650.39819,0.23081
1648.90841,0.22800
1647.41862,0.14232
1645.92883,0.23728
1644.43904,0.33235
1642.94925,0.32014
1641.45946,0.43003
1639.96968,0.19842
1638.47989,0.45977
1636.99010,0.23810
1635.50031,0.52404
1634.01052,0.00000
1632.52073,0.26563
1631.03094,0.03848
1629.54116,0.13350
1628.05137,0.09197
1626.56158,0.09933
1625.07179,0.21903
1623.58200,0.33882
1622.09221,0.37574
1620.60243,0.49084
1619.11264,0.25955
1617.62285,0.25284
1616.13306,0.39261
1614.64327,0.30800
1613.15348,0.20396
1611.66370,0.12442
1610.17391,0.31337
1608.68412,0.39504
1607.19433,0.16938
1605.70454,0.44157
1604.21475,0.38201
1602.72496,0.32254
1601.23518,0.26317
1599.74539,0.44301
1598.25560,0.32526
1596.76581,0.31985
1595.27602,0.37797
1593.78623,0.28490
1592.29645,0.15288
1590.80666,0.10392
1589.31687,0.35273
1587.82708,0.32347
1586.33729,0.40655
1584.84750,0.17252
1583.35771,0.27042
1581.86793,0.33426
1580.37814,0.57874
1578.88835,0.67204
1577.39856,0.27256
1575.90877,0.12693
1574.41898,0.42547
1572.92920,0.19707
1571.43941,0.24691
1569.94962,0.30661
1568.45983,0.36640
1566.97004,0.24573
1565.48025,0.13979
1563.99047,0.38530
1562.50068,0.18683
1561.01089,0.28612
1559.52110,0.00000
1558.03131,0.16258
1556.54152,0.02269
1555.05173,0.06833
1553.56195,0.38246
1552.07216,0.24285
1550.58237,0.09845
1549.09258,0.40798
1547.60279,0.32721
1546.11300,0.32949
1544.62322,0.21963
1543.13343,0.48073
1541.64364,0.11241
1540.15385,0.06627
1538.66406,0.02021
1537.17427,0.31097
1535.68448,0.41150
1534.19470,0.47796
1532.70491,0.17364
1531.21512,0.09878
1529.72533,0.09232
1528.23554,0.08108
1526.74575,0.29928
1525.25597,0.32727
1523.76618,0.39926
1522.27639,0.40303
1520.78660,0.46545
1519.29681,0.36693
1517.80702,0.20018
1516.31724,0.10184
1514.82745,0.01336
1513.33766,0.04452
1511.84787,0.07578
1510.35808,0.29501
1508.86829,0.11418
1507.37850,0.10912
1505.88872,0.04559
1504.39893,0.31887
1502.90914,0.05546
1501.41935,0.13861
1499.92956,0.19745
1498.43977,0.07583
1496.94999,0.23246
1495.46020,0.33550
1493.97041,0.44352
1492.48062,0.61506
1490.99083,0.38655
1489.50104,0.58268
1488.01125,0.50319
1486.52147,0.42379
1485.03168,0.31765
1483.54189,0.40680
1482.05210,0.43747
1480.56231,0.54633
1479.07252,0.55767
1477.58274,0.61791
1476.09295,0.41961
1474.60316,0.66547
1473.11337,0.70159
1471.62358,0.88420
1470.13379,0.84730
1468.64401,0.72266
1467.15422,1.20323
1465.66443,0.72986
1464.17464,0.25658
1462.68485,0.51783
1461.19506,0.63277
1459.70527,0.16709
1458.21549,0.33590
1456.72570,0.22664
1455.23591,0.37123
1453.74612,0.70624
1452.25633,0.69486
1450.76654,0.15654
1449.27676,0.43326
1447.78697,0.47096
1446.29718,0.25500
1444.80739,0.17089
1443.31760,0.08687
1441.82781,0.24206
1440.33802,0.28022
1438.84824,0.20624
1437.35845,0.23483
1435.86866,0.00000
1434.37887,0.24507
1432.88908,0.01200
1431.39929,0.09622
1429.90951,0.15125
1428.41972,0.37717
1426.92993,0.40311
1425.44014,0.32178
1423.95035,0.20883
1422.46056,0.09596
1420.97078,0.11740
1419.48099,0.39268
1417.99120,0.29229
1416.50141,0.37256
1415.01162,0.05765
1413.52183,0.15274
1412.03204,0.05273
1410.54226,0.44569
1409.05247,0.29706
1407.56268,0.32421
1406.07289,0.34169
1404.58310,0.40563
1403.09331,0.46965
1401.60353,0.65821
1400.11374,0.45646
1398.62395,0.36217
1397.13416,0.36069
1395.64437,0.35442
1394.15458,0.23112
1392.66479,0.50808
1391.17501,0.48257
1389.68522,0.36932
1388.19543,0.50016
1386.70564,0.42368
1385.21585,0.34731
1383.72606,0.61994
1382.23628,0.60963
1380.74649,0.76045
1379.25670,0.56977
1377.76691,0.54022
1376.27712,0.47172
1374.78733,0.65219
1373.29755,0.26668
1371.80776,0.27654
1370.31797,0.49633
1368.82818,0.60641
1367.33839,0.71659
1365.84860,1.12698
1364.35881,0.73227
1362.86903,0.93789
1361.37924,0.93864
1359.88945,0.68085
1358.39966,0.74034
1356.90987,0.48274
1355.42008,0.64490
1353.93030,0.64124
1352.44051,0.79138
1350.95072,0.94162
1349.46093,0.74304
1347.97114,0.60311
1346.48135,0.61943
1344.99156,0.47481
1343.50178,0.56939
1342.01199,0.45912
1340.52220,0.40261
1339.03241,0.54628
1337.54262,0.53876
1336.05283,0.51669
1334.56305,0.49472
1333.07326,0.53139
1331.58347,0.41201
1330.09368,0.42447
1328.60389,0.24183
1327.11410,0.40088
1325.62432,0.36971
1324.13453,0.27518
1322.64474,0.37107
1321.15495,0.35482
1319.66516,0.40697
1318.17537,0.45922
1316.68558,0.43348
1315.19580,0.41272
1313.70601,0.36765
1312.21622,0.49834
1310.72643,0.37538
1309.23664,0.49163
1307.74685,0.06629
1306.25707,0.25105
1304.76728,0.27729
1303.27749,0.30363
1301.78770,0.21538
1300.29791,0.19067
1298.80812,0.12213
1297.31834,0.00000
1295.82855,0.14122
1294.33876,0.82420
1292.84897,0.65816
1291.35918,0.46294
1289.86939,0.41421
1288.37960,0.36558
1286.88982,0.50735
1285.40003,0.50282
1283.91024,0.24951
1282.42045,0.33788
1280.93066,0.42635
1279.44087,0.64179
1277.95109,0.41813
1276.46130,0.54103
1274.97151,0.45663
1273.48172,0.37233
1271.99193,0.67119
1270.50214,0.48215
1269.01235,0.62992
1267.52257,0.62163
1266.03278,0.54023
1264.54299,0.61507
1263.05320,0.49970
1261.56341,0.50642
1260.07362,0.51323
1258.58384,0.53965
1257.09405,0.49297
1255.60426,0.81237
1254.11447,0.97572
1252.62468,0.70972
1251.13489,0.28765
1249.64511,0.55375
1248.15532,0.57594
1246.66553,0.60311
1245.17574,0.63037
1243.68595,0.51132
1242.19616,0.65101
1240.70637,0.42967
1239.21659,0.46219
1237.72680,0.01168
1236.23701,0.11757
1234.74722,0.63348
1233.25743,0.49557
1231.76764,0.35775
1230.27786,0.28346
1228.78807,0.24342
1227.29828,0.51092
1225.80849,0.39787
1224.31870,0.21660
1222.82891,0.32821
1221.33912,0.03976
1219.84934,0.10276
1218.35955,0.16586
1216.86976,0.09729
1215.37997,0.30208
1213.89018,0.39962
1212.40039,0.55092
1210.91061,0.55592
1209.42082,0.45366
1207.93103,0.38321
1206.44124,0.31285
1204.95145,0.42558
1203.46166,0.18705
1201.97188,0.26092
1200.48209,0.53497
1198.99230,0.19912
1197.50251,0.00000
1196.01272,0.06234
1194.52293,0.20773
1193.03314,0.35322
1191.54336,0.46951
1190.05357,0.92750
1188.56378,0.66335
1187.07399,0.38953
1185.58420,0.19388
1184.09441,0.29601
1182.60463,0.50070
1181.11484,0.70549
1179.62505,0.44677
1178.13526,0.50535
1176.64547,0.65186
1175.15568,0.49102
1173.66589,0.37420
1172.17611,0.66250
1170.68632,0.59710
1169.19653,0.53180
1167.70674,0.97166
1166.21695,1.00659
1164.72716,0.91960
1163.23738,0.90103
1161.74759,0.81423
1160.25780,0.82024
1158.76801,0.89954
1157.27822,0.97894
1155.78843,1.33171
1154.29865,1.18194
1152.80886,1.38361
1151.31907,1.11690
1149.82928,1.06989
1148.33949,1.18400
1146.84970,0.96882
1145.35991,0.75372
1143.87013,0.63388
1142.38034,0.65565
1140.89055,0.61407
1139.40076,0.95322
1137.91097,1.09727
1136.42118,0.80709
1134.93140,0.70489
1133.44161,0.60278
1131.95182,0.68863
1130.46203,1.13570
1128.97224,1.17783
1127.48245,0.63446
1125.99266,0.88172
1124.50288,1.09005
1123.01309,0.91295
1121.52330,0.73594
1120.03351,0.60294
1118.54372,0.67500
1117.05393,0.90331
1115.56415,0.83891
1114.07436,0.62821
1112.58457,0.90072
1111.09478,1.17332
1109.60499,0.93362
1108.11520,1.00145
1106.62542,0.78145
1105.13563,0.55179
1103.64584,0.81997
1102.15605,0.45874
1100.66626,0.56119
1099.17647,0.66373
1097.68668,0.62973
1096.19690,0.83007
1094.70711,0.54249
1093.21732,0.73325
1091.72753,0.49954
1090.23774,0.56361
1088.74795,0.62777
1087.25817,0.97505
1085.76838,1.07356
1084.27859,1.25511
1082.78880,1.38796
1081.29901,1.41354
1079.80922,1.26842
1078.31943,1.30151
1076.82965,1.33469
1075.33986,1.11665
1073.85007,1.22077
1072.36028,0.96388
1070.87049,0.65339
1069.38070,0.67484
1067.89092,0.62806
1066.40113,0.58137
1064.91134,0.79342
1063.42155,1.18611
1061.93176,1.01771
1060.44197,0.84452
1058.95219,1.05693
1057.46240,1.01081
1055.97261,0.96477
1054.48282,1.19698
1052.99303,0.96082
1051.50324,0.39779
1050.01345,0.55708
1048.52367,0.82383
1047.03388,0.74419
1045.54409,0.66465
1044.05430,0.68280
1042.56451,0.33992
1041.07472,0.30946
1039.58494,0.29372
1038.09515,0.47816
1036.60536,0.61878
1035.11557,0.75948
1033.62578,0.51964
1032.13599,0.39214
1030.64620,0.59168
1029.15642,0.62052
1027.66663,0.37861
1026.17684,0.13680
1024.68705,0.00000
1023.19726,0.76725
1021.70747,0.74892
1020.21769,0.73069
1018.72790,0.74183
1017.23811,1.01170
1015.74832,1.28166
1014.25853,1.04420
1012.76874,1.15819
1011.27896,1.51139
1009.78917,1.43037
1008.29938,1.22744
1006.80959,1.42476
1005.31980,1.62218
1003.83001,1.33657
1002.34022,1.19258
1000.85044,1.51227
999.36065,1.56854
997.87086,1.33454
996.38107,1.10064
994.89128,1.24991
993.40149,1.21870
991.91171,0.88992
990.42192,0.98579
988.93213,0.60351
987.44234,0.56781
985.95255,0.53219
984.46276,0.72603
982.97297,0.93948
981.48319,1.05054
979.99340,1.04458
978.50361,0.87279
977.01382,0.70110
975.52403,0.70029
974.03424,0.79230
972.54446,0.61113
971.05467,0.55692
969.56488,0.39058
968.07509,0.52932
966.58530,0.66815
965.09551,0.39960
963.60573,0.36538
962.11594,0.35566
960.62615,0.02883
959.13636,0.02173
957.64657,0.01472
956.15678,0.21032
954.66699,0.27427
953.17721,0.53349
951.68742,0.58786
950.19763,0.51056
948.70784,0.43335
947.21805,0.00000
945.72826,0.25264
944.23848,0.12474
942.74869,0.48493
941.25890,0.41577
939.76911,0.35891
938.27932,0.30214
936.78953,0.75053
935.29974,0.52559
933.80996,0.43250
932.32017,0.61766
930.83038,0.80047
929.34059,0.98338
927.85080,0.84674
926.36101,0.87612
924.87123,1.25694
923.38144,0.91074
921.89165,0.95991
920.40186,1.00918
918.91207,1.11710
917.42228,1.16167
915.93250,1.17217
914.44271,1.00221
912.95292,1.00558
911.46313,1.00905
909.97334,1.33712
908.48355,0.89425
906.99376,0.80772
905.50398,0.38456
904.01419,0.32261
902.52440,0.26075
901.03461,0.23315
899.54482,0.32764
898.05503,0.68573
896.56525,0.48273
895.07546,0.60677
893.58567,0.73091
892.09588,1.35290
890.60609,1.10147
889.11630,0.88429
887.62651,0.80872
886.13673,0.72837
884.64694,0.64811
883.15715,0.78266
881.66736,1.05882
880.17757,0.93004
878.68778,0.91847
877.19800,0.90699
875.70821,1.06641
874.21842,1.22591
872.72863,1.43432
871.23884,1.67697
869.74905,1.48052
868.25927,1.28416
866.76948,1.41974
865.27969,1.34556
863.78990,1.21781
862.30011,1.16822
860.81032,1.44568
859.32053,1.72324
857.83075,1.90329
856.34096,1.82480
854.85117,1.39504
853.36138,1.84377
851.87159,1.56548
850.38180,1.28728
848.89202,1.29709
847.40223,1.26795
845.91244,1.33163
844.42265,1.10260
842.93286,0.87367
841.44307,0.75707
839.95329,1.00167
838.46350,1.15365
836.97371,1.29597
835.48392,1.15778
833.99413,1.01968
832.50434,0.50348
831.01455,0.57297
829.52477,0.54983
828.03498,0.68294
826.54519,1.14798
825.05540,1.61311
823.56561,1.28291
822.07582,0.36233
820.58604,0.17382
819.09625,0.46121
817.60646,0.74869
816.11667,0.63367
814.62688,0.26499
813.13709,0.37951
811.64730,0.56245
810.15752,0.67471
808.66773,0.78708
807.17794,1.22405
805.68815,1.22680
804.19836,0.84412
802.70857,0.62502
801.21879,0.40601
799.72900,0.55553
798.23921,0.97842
796.74942,0.80117
795.25963,0.68501
793.76984,0.56894
792.28006,0.62133
790.79027,0.34685
789.30048,0.76542
787.81069,0.93032
786.32090,0.92208
784.83111,0.91393
783.34132,0.47400
781.85154,0.00000
780.36175,0.40882
778.87196,0.74697
777.38217,1.08521
775.89238,0.89407
774.40259,0.73718
772.91281,0.64383
771.42302,0.65549
769.93323,0.66724
768.44344,0.64249
766.95365,0.56415
765.46386,0.50054
763.97407,0.51998
762.48429,0.69811
760.99450,0.87634
759.50471,0.78870
758.01492,0.61332
756.52513,0.81867
755.03534,0.75083
753.54556,0.68309
752.05577,0.23480
750.56598,0.36732
749.07619,0.62681
747.58640,0.59604
746.09661,0.56536
744.60683,0.46889
743.11704,0.76780
741.62725,0.98383
740.13746,0.88765
738.64767,0.79155
737.15788,1.11523
735.66809,0.78020
734.17831,0.49407
732.68852,0.58867
731.19873,0.68336
729.70894,0.69518
728.21915,0.43870
726.72936,0.32871
725.23958,0.31153
723.74979,0.25541
722.26000,0.19938
720.77021,0.26544
719.28042,0.78055
717.79063,0.78823
716.30084,0.74721
714.81106,0.70629
713.32127,0.42146
711.83148,0.54176
710.34169,0.72071
708.85190,0.89975
707.36211,1.07889
705.87233,0.73108
704.38254,0.57369
702.89275,0.37735
701.40296,0.74962
699.91317,1.12198
698.42338,1.07719
696.93360,0.98370
695.44381,0.67559
693.95402,0.74333
692.46423,0.81115
690.97444,0.98155
689.48465,0.66405
687.99486,0.46864
686.50508,0.66128
685.01529,0.85401
683.52550,0.97120
682.03571,1.21535
680.54592,0.94721
679.05613,0.90120
677.56635,0.85528
676.07656,0.98269
674.58677,1.05163
673.09698,0.98891
671.60719,0.49441
670.11740,0.00000
668.62761,0.27616
667.13783,0.46457
665.64804,0.58475
664.15825,0.70503
662.66846,1.39148
661.17867,0.99955
659.68888,0.50035
658.19910,0.36724
656.70931,0.23423
655.21952,0.51610
653.72973,0.46135
652.23994,0.93861
650.75015,0.94017
649.26037,0.94182
647.77058,0.52633
646.28079,0.45740
644.79100,0.95953
643.30121,0.74683
641.81142,0.53423
640.32163,0.54376
638.83185,0.74858
637.34206,0.71925
635.85227,0.60950
634.36248,0.49984
632.87269,0.65623
631.38290,0.77368
629.89312,0.90097
628.40333,0.75753
626.91354,0.61417
625.42375,0.00000
623.93396,0.82197
622.44417,0.69000
620.95438,0.55813
619.46460,0.68254
617.97481,0.86561
616.48502,0.89262
614.99523,0.76843
613.50544,0.64434
612.01565,0.50571
610.52587,0.93812
609.03608,1.06807
607.54629,0.73939
606.05650,0.41081
604.56671,0.10185
603.07692,0.65672
601.58714,0.72614
600.09735,0.79564
598.60756,1.07264
597.11777,0.64702
595.62798,0.90468
594.13819,0.85500
592.64840,0.80541
591.15862,0.72664
589.66883,0.41860
588.17904,0.34001
586.68925,0.49819
585.19946,0.65647
583.70967,1.15400
582.21989,0.57315
580.73010,0.52918
579.24031,0.48531
577.75052,0.42690
576.26073,0.61257
574.77094,1.00817
573.28115,1.00860
571.79137,1.00911
570.30158,0.87796
568.81179,0.87866
567.32200,1.05025
565.83221,1.22194
564.34242,1.13020
562.85264,1.23863
561.36285,0.86892
559.87306,1.12150
558.38327,1.37416
556.89348,1.43905
555.40369,1.81146
553.91391,1.88385
552.42412,1.95633
550.93433,1.84591
549.44454,1.62823
547.95475,1.63999
546.46496,1.56401
544.97517,1.48812
543.48539,1.42696
541.99560,1.73677
540.50581,1.57088
539.01602,1.40509
537.52623,1.30526
536.03644,1.35681
534.54666,1.54021
533.05687,1.77006
531.56708,2.00000
530.07729,1.57368
528.58750,0.93762
527.09771,1.19225
525.60792,1.44696
524.11814,1.55293
522.62835,1.15636
521.13856,0.81356
519.64877,0.92469
518.15898,1.03592
516.66919,0.61044
515.17941,0.70720
513.68962,0.71623
512.19983,0.72534
510.71004,1.02735
509.22025,1.76864
507.73046,1.48524
506.24068,1.57037
504.75089,1.65559
503.26110,1.07479
501.77131,1.07967
500.28152,1.02609
498.79173,0.97261
497.30194,0.74354
495.81216,0.73904
494.32237,0.78831
492.83258,0.83767
491.34279,0.78953
489.85300,0.91716
488.36321,1.04488
486.87343,0.95066
485.38364,0.85653
483.89385,0.42822
482.40406,0.40016
480.91427,0.44539
479.42448,0.49071
477.93469,0.31164
476.44491,0.42059
474.95512,0.50523
473.46533,0.58996
471.97554,0.58695
470.48575,0.58891
468.99596,0.48849
467.50618,0.24420
466.01639,0.00000
464.52660,0.38601
463.03681,0.67451
461.54702,0.69959
460.05723,0.72476
458.56745,0.73539
457.07766,0.93154
455.58787,0.90088
454.09808,0.87030
452.60829,0.78858
451.11850,0.99975
449.62871,1.04021
448.13893,1.08077
446.64914,1.42885
445.15935,1.40127
443.66956,1.05659
442.17977,1.30980
440.68998,1.56310
439.20020,1.04302
437.71041,1.43558
436.22062,1.13528
434.73083,0.83508
433.24104,1.14496
431.75125,1.08407
430.26146,0.95006
428.77168,0.81615
427.28189,1.04832
425.79210,1.23179
424.30231,1.18112
422.81252,1.13054
421.32273,1.28500
419.83295,0.70758
418.34316,0.96959
416.85337,1.23170
415.36358,1.17670
413.87379,1.80011
412.38400,1.80386
410.89422,1.80770
409.40443,1.59204
407.91464,1.10807
406.42485,0.83404
404.93506,0.46981
403.44527,0.10568
401.95548,0.42240
400.46570,1.06617
398.97591,1.16835
397.48612,1.27063
395.99633,0.25549
394.50654,0.45556
393.01675,0.68987
391.52697,0.92428
390.03718,0.77815
388.54739,1.04690
387.05760,1.20107
385.56781,1.35533
384.07802,0.85822
382.58824,0.33191
381.09845,0.26685
379.60866,0.20189
378.11887,0.39810
376.62908,0.62856
375.13929,0.68343
373.64950,0.73840
372.15972,0.66658
370.66993,0.40453
369.18014,0.40122
367.69035,0.39800
366.20056,0.92191
364.71077,1.01159
363.22099,0.85981
361.73120,0.70813
360.24141,0.27106
358.75162,0.00000
357.26183,0.23574
355.77204,0.47157
354.28225,0.81486
352.79247,0.99719
351.30268,0.85267
349.81289,0.70824
348.32310,0.36870
346.83331,0.46357
345.34352,0.47070
343.85374,0.47792
342.36395,0.38275
340.87416,0.31208
339.38437,0.23418
337.89458,0.15637
336.40479,0.62765
334.91501,0.22063
333.42522,0.14798
331.93543,0.07543
330.44564,0.28844
328.95585,0.63331
327.46606,0.81722
325.97627,1.00124
324.48649,0.97063
322.99670,0.82787
321.50691,0.63397
320.01712,0.44015
318.52733,0.00000
317.03754,0.35230
315.54776,0.23378
314.05797,0.11535
312.56818,0.37521
311.07839,0.57172
309.58860,0.71953
308.09881,0.86743
306.60902,0.32247
305.11924,0.11432
303.62945,0.21858
302.13966,0.32293
300.64987,0.34441
299.16008,0.00000
