1778.52000,0.13053
1777.03021,0.01311
1775.54042,0.14585
1774.05063,0.17120
1772.56085,0.08436
1771.07106,0.23324
1769.58127,0.16732
1768.09148,0.17840
1766.60169,0.11415
1765.11190,0.21830
1763.62212,0.22147
1762.13233,0.30004
1760.64254,0.23755
1759.15275,0.18793
1757.66296,0.15117
1756.17317,0.15133
1754.68339,0.10503
1753.19360,0.18222
1751.70381,0.14722
1750.21402,0.15394
1748.72423,0.15429
1747.23444,0.21080
1745.74465,0.20481
1744.25487,0.13793
1742.76508,0.24425
1741.27529,0.21753
1739.78550,0.21972
1738.29571,0.24438
1736.80592,0.17609
1735.31614,0.22168
1733.82635,0.14705
1732.33656,0.13179
1730.84677,0.16306
1729.35698,0.17994
1727.86719,0.07981
1726.37740,0.04065
1724.88762,0.16346
1723.39783,0.23340
1721.90804,0.19756
1720.41825,0.33011
1718.92846,0.19013
1717.43867,0.21373
1715.94889,0.20850
1714.45910,0.21454
1712.96931,0.26711
1711.47952,0.24597
1709.98973,0.26655
1708.49994,0.21662
1707.01016,0.24770
1705.52037,0.27882
1704.03058,0.26749
1702.54079,0.21611
1701.05100,0.30587
1699.56121,0.22090
1698.07142,0.26744
1696.58164,0.28836
1695.09185,0.32376
1693.60206,0.32552
1692.11227,0.38183
1690.62248,0.47025
1689.13269,0.48816
1687.64291,0.40831
1686.15312,0.21466
1684.66333,0.35132
1683.17354,0.31487
1681.68375,0.23678
1680.19396,0.27576
1678.70417,0.17529
1677.21439,0.21595
1675.72460,0.29834
1674.23481,0.37756
1672.74502,0.33015
1671.25523,0.34050
1669.76544,0.37494
1668.27566,0.35170
1666.78587,0.34293
1665.29608,0.35824
1663.80629,0.38001
1662.31650,0.44671
1660.82671,0.47977
1659.33693,0.42469
1657.84714,0.31995
1656.35735,0.26174
1654.86756,0.20037
1653.37777,0.15827
1651.88798,0.20439
1650.39819,0.28903
1648.90841,0.38172
1647.41862,0.30450
1645.92883,0.28985
1644.43904,0.27524
1642.94925,0.34564
1641.45946,0.32789
1639.96968,0.39196
1638.47989,0.44644
1636.99010,0.41118
1635.50031,0.27975
1634.01052,0.29266
1632.52073,0.14207
1631.03094,0.23041
1629.54116,0.28833
1628.05137,0.30620
1626.56158,0.17340
1625.07179,0.31000
1623.58200,0.29592
1622.09221,0.32357
1620.60243,0.35446
1619.11264,0.24109
1617.62285,0.24480
1616.13306,0.33352
1614.64327,0.29081
1613.15348,0.23051
1611.66370,0.21192
1610.17391,0.33287
1608.68412,0.31597
1607.19433,0.38408
1605.70454,0.37366
1604.21475,0.29996
1602.72496,0.22629
1601.23518,0.28493
1599.74539,0.39813
1598.25560,0.25964
1596.76581,0.33123
1595.27602,0.27458
1593.78623,0.22119
1592.29645,0.26723
1590.80666,0.23155
1589.31687,0.29691
1587.82708,0.20038
1586.33729,0.21291
1584.84750,0.14691
1583.35771,0.23006
1581.86793,0.27317
1580.37814,0.35961
1578.88835,0.27773
1577.39856,0.18147
1575.90877,0.27924
1574.41898,0.14136
1572.92920,0.06605
1571.43941,0.03568
1569.94962,0.06626
1568.45983,0.09689
1566.97004,0.19649
1565.48025,0.15344
1563.99047,0.21785
1562.50068,0.19412
1561.01089,0.20088
1559.52110,0.29907
1558.03131,0.19369
1556.54152,0.02580
1555.05173,0.04555
1553.56195,0.10221
1552.07216,0.22304
1550.58237,0.25252
1549.09258,0.24035
1547.60279,0.22982
1546.11300,0.20972
1544.62322,0.23454
1543.13343,0.23856
1541.64364,0.23139
1540.15385,0.16895
1538.66406,0.10654
1537.17427,0.09949
1535.68448,0.18867
1534.19470,0.17689
1532.70491,0.00000
1531.21512,0.16818
1529.72533,0.17928
1528.23554,0.23531
1526.74575,0.24808
1525.25597,0.19356
1523.76618,0.15350
1522.27639,0.37162
1520.78660,0.24506
1519.29681,0.17626
1517.80702,0.12833
1516.31724,0.01311
1514.82745,0.03701
1513.33766,0.08259
1511.84787,0.12821
1510.35808,0.20673
1508.86829,0.24361
1507.37850,0.23082
1505.88872,0.16837
1504.39893,0.11718
1502.90914,0.01311
1501.41935,0.06736
1499.92956,0.16173
1498.43977,0.16315
1496.94999,0.26400
1495.46020,0.29756
1493.97041,0.26702
1492.48062,0.34395
1490.99083,0.40808
1489.50104,0.52356
1488.01125,0.47554
1486.52147,0.42756
1485.03168,0.36839
1483.54189,0.47120
1482.05210,0.51953
1480.56231,0.59516
1479.07252,0.71892
1477.58274,0.79142
1476.09295,0.92327
1474.60316,0.81948
1473.11337,0.89690
1471.62358,0.98558
1470.13379,0.95886
1468.64401,1.02998
1467.15422,0.97929
1465.66443,0.91661
1464.17464,0.85397
1462.68485,0.87715
1461.19506,0.84585
1459.70527,0.58852
1458.21549,0.48355
1456.72570,0.31287
1455.23591,0.45007
1453.74612,0.53440
1452.25633,0.40233
1450.76654,0.32800
1449.27676,0.30984
1447.78697,0.26926
1446.29718,0.22231
1444.80739,0.22510
1443.31760,0.22793
1441.82781,0.20354
1440.33802,0.18079
1438.84824,0.22863
1437.35845,0.17549
1435.86866,0.14805
1434.37887,0.12866
1432.88908,0.01311
1431.39929,0.20307
1429.90951,0.13494
1428.41972,0.12135
1426.92993,0.22325
1425.44014,0.14881
1423.95035,0.15218
1422.46056,0.15558
1420.97078,0.09569
1419.48099,0.22824
1417.99120,0.17163
1416.50141,0.28021
1415.01162,0.27178
1413.52183,0.16718
1412.03204,0.30634
1410.54226,0.33971
1409.05247,0.25768
1407.56268,0.23501
1406.07289,0.33423
1404.58310,0.29720
1403.09331,0.26022
1401.60353,0.30344
1400.11374,0.32265
1398.62395,0.30181
1397.13416,0.31629
1395.64437,0.44303
1394.15458,0.43674
1392.66479,0.51386
1391.17501,0.36815
1389.68522,0.37480
1388.19543,0.40554
1386.70564,0.39864
1385.21585,0.39177
1383.72606,0.60861
1382.23628,0.57055
1380.74649,0.54216
1379.25670,0.57152
1377.76691,0.59291
1376.27712,0.52134
1374.78733,0.67267
1373.29755,0.44725
1371.80776,0.62592
1370.31797,0.86715
1368.82818,0.89277
1367.33839,0.91843
1365.84860,0.93531
1364.35881,0.96345
1362.86903,0.95636
1361.37924,1.12887
1359.88945,1.09300
1358.39966,0.95615
1356.90987,1.07908
1355.42008,1.09943
1353.93030,0.96911
1352.44051,0.92461
1350.95072,0.88014
1349.46093,0.79323
1347.97114,0.82500
1346.48135,0.80870
1344.99156,0.59685
1343.50178,0.59987
1342.01199,0.54201
1340.52220,0.50983
1339.03241,0.50495
1337.54262,0.51134
1336.05283,0.52337
1334.56305,0.53544
1333.07326,0.37038
1331.58347,0.42021
1330.09368,0.38991
1328.60389,0.44141
1327.11410,0.44486
1325.62432,0.17257
1324.13453,0.31077
1322.64474,0.13475
1321.15495,0.22333
1319.66516,0.24460
1318.17537,0.26591
1316.68558,0.23595
1315.19580,0.21404
1313.70601,0.20661
1312.21622,0.19761
1310.72643,0.20308
1309.23664,0.17652
1307.74685,0.22214
1306.25707,0.15237
1304.76728,0.15318
1303.27749,0.15403
1301.78770,0.14690
1300.29791,0.30014
1298.80812,0.32034
1297.31834,0.14177
1295.82855,0.29512
1294.33876,0.41004
1292.84897,0.44482
1291.35918,0.35459
1289.86939,0.34776
1288.37960,0.34098
1286.88982,0.30377
1285.40003,0.34035
1283.91024,0.36895
1282.42045,0.43927
1280.93066,0.40863
1279.44087,0.44055
1277.95109,0.43403
1276.46130,0.45160
1274.97151,0.42833
1273.48172,0.40509
1271.99193,0.39872
1270.50214,0.45492
1269.01235,0.62500
1267.52257,0.64440
1266.03278,0.47946
1264.54299,0.45885
1263.05320,0.60022
1261.56341,0.60294
1260.07362,0.60570
1258.58384,0.55960
1257.09405,0.52155
1255.60426,0.52843
1254.11447,0.53054
1252.62468,0.50543
1251.13489,0.50922
1249.64511,0.38157
1248.15532,0.45438
1246.66553,0.49276
1245.17574,0.53117
1243.68595,0.49346
1242.19616,0.49588
1240.70637,0.34762
1239.21659,0.24910
1237.72680,0.25323
1236.23701,0.38407
1234.74722,0.38988
1233.25743,0.34763
1231.76764,0.30542
1230.27786,0.44122
1228.78807,0.39107
1227.29828,0.29446
1225.80849,0.23476
1224.31870,0.29856
1222.82891,0.21169
1221.33912,0.35573
1219.84934,0.37876
1218.35955,0.40183
1216.86976,0.41932
1215.37997,0.26530
1213.89018,0.23798
1212.40039,0.34217
1210.91061,0.31011
1209.42082,0.35345
1207.93103,0.30464
1206.44124,0.25586
1204.95145,0.15822
1203.46166,0.18889
1201.97188,0.12499
1200.48209,0.25354
1198.99230,0.20255
1197.50251,0.24138
1196.01272,0.13756
1194.52293,0.14280
1193.03314,0.14808
1191.54336,0.39229
1190.05357,0.47621
1188.56378,0.41106
1187.07399,0.33312
1185.58420,0.01311
1184.09441,0.14112
1182.60463,0.18098
1181.11484,0.22088
1179.62505,0.31373
1178.13526,0.40341
1176.64547,0.34402
1175.15568,0.42897
1173.66589,0.36324
1172.17611,0.33283
1170.68632,0.34814
1169.19653,0.36350
1167.70674,0.49674
1166.21695,0.56588
1164.72716,0.54848
1163.23738,0.41087
1161.74759,0.30056
1160.25780,0.37306
1158.76801,0.43438
1157.27822,0.49573
1155.78843,0.43207
1154.29865,0.58649
1152.80886,0.71530
1151.31907,0.74795
1149.82928,0.77262
1148.33949,0.71235
1146.84970,0.71305
1145.35991,0.71378
1143.87013,0.64241
1142.38034,0.59031
1140.89055,0.63445
1139.40076,0.81972
1137.91097,0.96013
1136.42118,0.97553
1134.93140,0.99978
1133.44161,1.02407
1131.95182,1.01072
1130.46203,1.11605
1128.97224,1.07872
1127.48245,1.04785
1125.99266,1.08917
1124.50288,1.03592
1123.01309,1.02280
1121.52330,1.00972
1120.03351,1.24358
1118.54372,1.24501
1117.05393,1.07972
1115.56415,0.87760
1114.07436,0.98977
1112.58457,1.00818
1111.09478,1.02663
1109.60499,1.10203
1108.11520,1.24161
1106.62542,1.10866
1105.13563,0.93085
1103.64584,0.93907
1102.15605,0.95374
1100.66626,0.90191
1099.17647,0.85012
1097.68668,0.80879
1096.19690,0.84125
1094.70711,0.99399
1093.21732,1.00568
1091.72753,0.85869
1090.23774,1.01876
1088.74795,1.17887
1087.25817,1.16667
1085.76838,1.30361
1084.27859,1.24018
1082.78880,1.17037
1081.29901,1.30422
1079.80922,1.31144
1078.31943,1.29065
1076.82965,1.26990
1075.33986,1.18905
1073.85007,1.28301
1072.36028,1.42831
1070.87049,1.39729
1069.38070,1.27171
1067.89092,1.22072
1066.40113,1.16977
1064.91134,1.28480
1063.42155,1.32131
1061.93176,1.26165
1060.44197,1.22929
1058.95219,1.21942
1057.46240,1.16228
1055.97261,1.10518
1054.48282,1.12749
1052.99303,1.06646
1051.50324,1.08564
1050.01345,0.77938
1048.52367,0.91407
1047.03388,0.91171
1045.54409,0.90940
1044.05430,0.73316
1042.56451,0.59223
1041.07472,0.56197
1039.58494,0.44838
1038.09515,0.66350
1036.60536,0.63656
1035.11557,0.60966
1033.62578,0.50263
1032.13599,0.45336
1030.64620,0.51797
1029.15642,0.56016
1027.66663,0.55830
1026.17684,0.55648
1024.68705,0.73988
1023.19726,0.76459
1021.70747,0.97533
1020.21769,1.00332
1018.72790,1.24460
1017.23811,1.39131
1015.74832,1.53807
1014.25853,1.55820
1012.76874,1.78199
1011.27896,1.70439
1009.78917,1.91383
1008.29938,1.90044
1006.80959,1.89270
1005.31980,1.88501
1003.83001,2.00000
1002.34022,1.80719
1000.85044,1.78919
999.36065,1.78084
997.87086,1.62343
996.38107,1.46605
994.89128,1.55562
993.40149,1.44481
991.91171,1.43986
990.42192,1.13994
988.93213,1.19599
987.44234,1.11420
985.95255,1.03244
984.46276,1.14954
982.97297,1.22819
981.48319,1.10005
979.99340,0.74268
978.50361,0.70841
977.01382,0.67419
975.52403,0.74181
974.03424,0.79343
972.54446,0.62384
971.05467,0.58736
969.56488,0.41944
968.07509,0.33975
966.58530,0.26009
965.09551,0.37929
963.60573,0.27245
962.11594,0.30835
960.62615,0.25290
959.13636,0.27925
957.64657,0.30564
956.15678,0.30802
954.66699,0.24150
953.17721,0.24235
951.68742,0.31219
950.19763,0.22093
948.70784,0.12971
947.21805,0.15957
945.72826,0.01311
944.23848,0.16660
942.74869,0.18384
941.25890,0.35344
939.76911,0.43809
938.27932,0.52279
936.78953,0.41512
935.29974,0.49990
933.80996,0.54302
932.32017,0.64871
930.83038,0.65584
929.34059,0.66300
927.85080,0.71750
926.36101,0.82495
924.87123,0.88915
923.38144,0.77862
921.89165,0.74028
920.40186,0.70198
918.91207,0.81603
917.42228,0.75536
915.93250,0.65945
914.44271,0.71109
912.95292,0.65534
911.46313,0.59964
909.97334,0.62734
908.48355,0.52842
906.99376,0.46801
905.50398,0.18318
904.01419,0.18619
902.52440,0.18923
901.03461,0.10333
899.54482,0.22910
898.05503,0.33888
896.56525,0.24507
895.07546,0.30682
893.58567,0.36862
892.09588,0.49458
890.60609,0.42337
889.11630,0.53338
887.62651,0.66427
886.13673,0.69017
884.64694,0.71612
883.15715,0.64992
881.66736,0.69919
880.17757,0.72445
878.68778,0.82831
877.19800,0.93221
875.70821,0.90307
874.21842,1.01025
872.72863,1.03730
871.23884,1.24717
869.74905,1.29595
868.25927,1.34476
866.76948,1.34952
865.27969,1.24850
863.78990,1.35916
862.30011,1.45863
860.81032,1.43548
859.32053,1.41238
857.83075,1.53120
856.34096,1.49134
854.85117,1.43227
853.36138,1.41814
851.87159,1.33991
850.38180,1.26172
848.89202,1.02323
847.40223,1.05574
845.91244,0.84940
844.42265,0.70403
842.93286,0.55869
841.44307,0.47110
839.95329,0.61444
838.46350,0.59106
836.97371,0.59499
835.48392,0.52599
833.99413,0.45704
832.50434,0.40977
831.01455,0.33047
829.52477,0.35703
828.03498,0.41730
826.54519,0.44073
825.05540,0.46419
823.56561,0.39631
822.07582,0.28357
820.58604,0.21897
819.09625,0.21453
817.60646,0.21013
816.11667,0.18413
814.62688,0.07639
813.13709,0.11619
811.64730,0.01495
810.15752,0.04120
808.66773,0.06749
807.17794,0.16838
805.68815,0.13783
804.19836,0.13618
802.70857,0.17465
801.21879,0.21315
799.72900,0.14749
798.23921,0.22455
796.74942,0.22149
795.25963,0.20323
793.76984,0.18501
792.28006,0.13396
790.79027,0.15189
789.30048,0.09772
787.81069,0.01311
786.32090,0.04151
784.83111,0.06994
783.34132,0.07276
781.85154,0.08684
780.36175,0.16027
778.87196,0.14076
777.38217,0.12128
775.89238,0.21728
774.40259,0.22354
772.91281,0.22181
771.42302,0.14958
769.93323,0.07738
768.44344,0.14632
766.95365,0.19605
765.46386,0.09672
763.97407,0.02788
762.48429,0.02642
760.99450,0.02500
759.50471,0.14708
758.01492,0.03831
756.52513,0.08350
755.03534,0.10869
753.54556,0.13392
752.05577,0.16319
750.56598,0.11394
749.07619,0.21223
747.58640,0.23039
746.09661,0.24860
744.60683,0.09208
743.11704,0.09753
741.62725,0.11424
740.13746,0.13660
738.64767,0.15901
737.15788,0.20790
735.66809,0.03077
734.17831,0.12784
732.68852,0.16001
731.19873,0.19222
729.70894,0.18519
728.21915,0.11086
726.72936,0.11834
725.23958,0.08096
723.74979,0.07168
722.26000,0.06243
720.77021,0.16145
719.28042,0.23645
717.79063,0.28264
716.30084,0.28317
714.81106,0.28373
713.32127,0.22421
711.83148,0.12946
710.34169,0.25760
708.85190,0.26393
707.36211,0.27030
705.87233,0.35207
704.38254,0.18856
702.89275,0.27361
701.40296,0.26490
699.91317,0.25623
698.42338,0.24198
696.93360,0.21495
695.44381,0.22964
693.95402,0.25800
692.46423,0.28639
690.97444,0.47756
689.48465,0.45714
687.99486,0.35177
686.50508,0.37631
685.01529,0.40089
683.52550,0.54094
682.03571,0.57201
680.54592,0.49249
679.05613,0.45549
677.56635,0.41854
676.07656,0.38883
674.58677,0.38001
673.09698,0.42734
671.60719,0.34324
670.11740,0.25917
668.62761,0.27615
667.13783,0.28195
665.64804,0.29821
664.15825,0.31451
662.66846,0.30438
661.17867,0.11473
659.68888,0.12873
658.19910,0.16442
656.70931,0.20015
655.21952,0.05233
653.72973,0.16910
652.23994,0.24743
650.75015,0.20555
649.26037,0.16371
647.77058,0.12511
646.28079,0.06090
644.79100,0.13621
643.30121,0.15785
641.81142,0.17953
640.32163,0.18601
638.83185,0.18131
637.34206,0.01311
635.85227,0.08164
634.36248,0.15021
632.87269,0.15548
631.38290,0.06299
629.89312,0.16614
628.40333,0.10419
626.91354,0.04228
625.42375,0.15036
623.93396,0.17831
622.44417,0.23836
620.95438,0.29845
619.46460,0.23673
617.97481,0.13336
616.48502,0.15349
614.99523,0.21293
613.50544,0.27241
612.01565,0.21248
610.52587,0.28727
609.03608,0.26751
607.54629,0.26621
606.05650,0.26496
604.56671,0.28218
603.07692,0.34113
601.58714,0.33278
600.09735,0.32446
598.60756,0.31458
597.11777,0.47148
595.62798,0.41198
594.13819,0.33968
592.64840,0.26742
591.15862,0.20162
589.66883,0.28336
588.17904,0.22244
586.68925,0.25695
585.19946,0.29151
583.70967,0.40867
582.21989,0.36875
580.73010,0.30241
579.24031,0.23611
577.75052,0.25081
576.26073,0.28960
574.77094,0.39096
573.28115,0.37452
571.79137,0.35811
570.30158,0.45317
568.81179,0.50658
567.32200,0.46383
565.83221,0.42112
564.34242,0.68629
562.85264,0.68214
561.36285,0.76300
559.87306,0.77255
558.38327,0.78214
556.89348,0.85349
555.40369,1.12049
553.91391,1.11977
552.42412,1.11909
550.93433,1.11364
549.44454,1.34391
547.95475,1.25677
546.46496,1.21696
544.97517,1.17719
543.48539,1.12864
541.99560,1.33185
540.50581,1.29861
539.01602,1.26541
537.52623,1.28114
536.03644,1.16063
534.54666,1.21973
533.05687,1.26926
531.56708,1.31881
530.07729,1.18563
528.58750,1.03164
527.09771,1.02761
525.60792,1.02361
524.11814,1.05091
522.62835,1.01091
521.13856,0.75931
519.64877,0.74424
518.15898,0.72921
516.66919,0.78877
515.17941,0.68163
513.68962,0.69396
512.19983,0.70634
510.71004,0.79010
509.22025,0.97171
507.73046,0.96416
506.24068,0.92779
504.75089,0.89145
503.26110,0.82149
501.77131,0.85738
500.28152,0.85082
498.79173,0.84430
497.30194,0.84664
495.81216,0.71915
494.32237,0.75283
492.83258,0.78654
491.34279,0.68161
489.85300,0.53343
488.36321,0.66907
486.87343,0.59792
485.38364,0.52681
483.89385,0.41726
482.40406,0.39112
480.91427,0.29849
479.42448,0.20588
477.93469,0.25521
476.44491,0.16189
474.95512,0.11510
473.46533,0.06834
471.97554,0.14989
470.48575,0.12566
468.99596,0.18003
467.50618,0.09655
466.01639,0.01311
464.52660,0.11186
463.03681,0.20744
461.54702,0.23653
460.05723,0.26565
458.56745,0.24430
457.07766,0.37370
455.58787,0.36125
454.09808,0.34884
452.60829,0.46713
451.11850,0.54859
449.62871,0.63971
448.13893,0.73086
446.64914,0.75471
445.15935,0.89725
443.66956,0.86987
442.17977,0.85295
440.68998,0.83608
439.20020,0.77675
437.71041,0.79441
436.22062,0.86182
434.73083,0.92927
433.24104,0.93423
431.75125,0.97129
430.26146,0.85046
428.77168,0.72967
427.28189,0.76685
425.79210,0.93553
424.30231,1.04013
422.81252,1.14475
421.32273,0.95281
419.83295,0.88596
418.34316,0.88729
416.85337,0.88866
415.36358,0.91652
413.87379,1.01657
412.38400,1.03729
410.89422,1.05805
409.40443,0.93215
407.91464,0.77582
406.42485,0.59067
404.93506,0.53783
403.44527,0.48503
401.95548,0.41864
400.46570,0.49178
398.97591,0.53690
397.48612,0.58205
395.99633,0.38915
394.50654,0.21874
393.01675,0.24958
391.52697,0.28045
390.03718,0.49174
388.54739,0.54755
387.05760,0.56251
385.56781,0.57751
384.07802,0.51478
382.58824,0.29337
381.09845,0.28844
379.60866,0.28355
378.11887,0.42139
376.62908,0.23379
375.13929,0.23303
373.64950,0.23230
372.15972,0.21317
370.66993,0.24538
369.18014,0.24396
367.69035,0.24259
366.20056,0.34386
364.71077,0.32492
363.22099,0.33488
361.73120,0.34487
360.24141,0.21542
358.75162,0.16617
357.26183,0.20931
355.77204,0.25249
354.28225,0.23799
352.79247,0.29087
351.30268,0.22434
349.81289,0.15784
348.32310,0.18999
346.83331,0.31333
345.34352,0.23869
343.85374,0.16410
342.36395,0.24746
340.87416,0.12885
339.38437,0.15939
337.89458,0.18996
336.40479,0.28150
334.91501,0.15662
333.42522,0.11676
331.93543,0.07694
330.44564,0.01311
328.95585,0.13335
327.46606,0.19028
325.97627,0.24726
324.48649,0.19124
322.99670,0.12830
321.50691,0.09506
320.01712,0.06186
318.52733,0.11127
317.03754,0.01962
315.54776,0.05708
314.05797,0.09458
312.56818,0.19705
311.07839,0.18893
309.58860,0.17443
308.09881,0.15998
306.60902,0.10066
305.11924,0.19851
303.62945,0.11603
302.13966,0.03358
300.64987,0.05700
299.16008,0.01311
