1778.52000,0.00501
1777.03021,0.01836
1775.54042,0.00974
1774.05063,0.02109
1772.56085,0.01976
1771.07106,0.06109
1769.58127,0.05328
1768.09148,0.02626
1766.60169,0.02436
1765.11190,0.02147
1763.62212,0.01998
1762.13233,0.02987
1760.64254,0.05560
1759.15275,0.07277
1757.66296,0.04907
1756.17317,0.01473
1754.68339,0.03665
1753.19360,0.04108
1751.70381,0.05310
1750.21402,0.05243
1748.72423,0.03322
1747.23444,0.03433
1745.74465,0.05267
1744.25487,0.03803
1742.76508,0.03751
1741.27529,0.01606
1739.78550,0.03142
1738.29571,0.04097
1736.80592,0.04196
1735.31614,0.06670
1733.82635,0.01824
1732.33656,0.02208
1730.84677,0.02009
1729.35698,0.02571
1727.86719,0.03479
1726.37740,0.02500
1724.88762,0.04034
1723.39783,0.00723
1721.90804,0.03260
1720.41825,0.03909
1718.92846,0.00814
1717.43867,0.01263
1715.94889,0.02094
1714.45910,0.03066
1712.96931,0.03284
1711.47952,0.03539
1709.98973,0.01736
1708.49994,0.03407
1707.01016,0.03758
1705.52037,0.04113
1704.03058,0.04109
1702.54079,0.03181
1701.05100,0.04284
1699.56121,0.05012
1698.07142,0.03508
1696.58164,0.04140
1695.09185,0.05599
1693.60206,0.06374
1692.11227,0.06190
1690.62248,0.10685
1689.13269,0.08685
1687.64291,0.10538
1686.15312,0.09645
1684.66333,0.08960
1683.17354,0.09586
1681.68375,0.10902
1680.19396,0.10777
1678.70417,0.11619
1677.21439,0.07787
1675.72460,0.08979
1674.23481,0.08592
1672.74502,0.10099
1671.25523,0.13294
1669.76544,0.10991
1668.27566,0.09414
1666.78587,0.10315
1665.29608,0.11494
1663.80629,0.10613
1662.31650,0.09048
1660.82671,0.06627
1659.33693,0.09882
1657.84714,0.07226
1656.35735,0.05090
1654.86756,0.03025
1653.37777,0.02270
1651.88798,0.04406
1650.39819,0.04586
1648.90841,0.05834
1647.41862,0.05264
1645.92883,0.04610
1644.43904,0.03960
1642.94925,0.04465
1641.45946,0.05489
1639.96968,0.07856
1638.47989,0.11499
1636.99010,0.08269
1635.50031,0.07449
1634.01052,0.06185
1632.52073,0.07984
1631.03094,0.09546
1629.54116,0.06332
1628.05137,0.06800
1626.56158,0.04589
1625.07179,0.05613
1623.58200,0.06297
1622.09221,0.06915
1620.60243,0.07845
1619.11264,0.07335
1617.62285,0.06897
1616.13306,0.09006
1614.64327,0.10912
1613.15348,0.09280
1611.66370,0.07995
1610.17391,0.07916
1608.68412,0.10763
1607.19433,0.09900
1605.70454,0.09350
1604.21475,0.10160
1602.72496,0.10974
1601.23518,0.10674
1599.74539,0.14159
1598.25560,0.13728
1596.76581,0.07076
1595.27602,0.09677
1593.78623,0.05542
1592.29645,0.02510
1590.80666,0.02301
1589.31687,0.04364
1587.82708,0.03851
1586.33729,0.06368
1584.84750,0.07203
1583.35771,0.07525
1581.86793,0.07541
1580.37814,0.08798
1578.88835,0.03835
1577.39856,0.06199
1575.90877,0.05608
1574.41898,0.04850
1572.92920,0.02306
1571.43941,0.02482
1569.94962,0.01664
1568.45983,0.00849
1566.97004,0.01653
1565.48025,0.00501
1563.99047,0.04806
1562.50068,0.04508
1561.01089,0.06034
1559.52110,0.05914
1558.03131,0.04387
1556.54152,0.04480
1555.05173,0.02238
1553.56195,0.03024
1552.07216,0.02885
1550.58237,0.06463
1549.09258,0.04336
1547.60279,0.05376
1546.11300,0.03978
1544.62322,0.04199
1543.13343,0.07242
1541.64364,0.06644
1540.15385,0.06084
1538.66406,0.05527
1537.17427,0.07276
1535.68448,0.04044
1534.19470,0.03599
1532.70491,0.04155
1531.21512,0.02788
1529.72533,0.03660
1528.23554,0.04088
1526.74575,0.03109
1525.25597,0.04231
1523.76618,0.05287
1522.27639,0.04764
1520.78660,0.02320
1519.29681,0.01667
1517.80702,0.00501
1516.31724,0.01212
1514.82745,0.04058
1513.33766,0.03589
1511.84787,0.03124
1510.35808,0.07767
1508.86829,0.08425
1507.37850,0.07677
1505.88872,0.02703
1504.39893,0.04299
1502.90914,0.00501
1501.41935,0.01972
1499.92956,0.03927
1498.43977,0.08533
1496.94999,0.09223
1495.46020,0.14385
1493.97041,0.17144
1492.48062,0.21075
1490.99083,0.27485
1489.50104,0.33520
1488.01125,0.35466
1486.52147,0.37416
1485.03168,0.43357
1483.54189,0.52120
1482.05210,0.58480
1480.56231,0.68281
1479.07252,0.71175
1477.58274,0.76376
1476.09295,0.84571
1474.60316,0.88196
1473.11337,0.93475
1471.62358,0.97484
1470.13379,0.95859
1468.64401,0.93927
1467.15422,0.89627
1465.66443,0.86945
1464.17464,0.84266
1462.68485,0.78394
1461.19506,0.68776
1459.70527,0.61672
1458.21549,0.51649
1456.72570,0.48608
1455.23591,0.43233
1453.74612,0.39373
1452.25633,0.35035
1450.76654,0.26747
1449.27676,0.20937
1447.78697,0.19600
1446.29718,0.19778
1444.80739,0.17536
1443.31760,0.15298
1441.82781,0.16139
1440.33802,0.13408
1438.84824,0.14222
1437.35845,0.09503
1435.86866,0.09979
1434.37887,0.08946
1432.88908,0.09290
1431.39929,0.13558
1429.90951,0.09646
1428.41972,0.12682
1426.92993,0.13624
1425.44014,0.11234
1423.95035,0.10257
1422.46056,0.09283
1420.97078,0.09172
1419.48099,0.16972
1417.99120,0.19068
1416.50141,0.16662
1415.01162,0.14604
1413.52183,0.16366
1412.03204,0.17924
1410.54226,0.18729
1409.05247,0.19056
1407.56268,0.22274
1406.07289,0.24739
1404.58310,0.26777
1403.09331,0.28818
1401.60353,0.32461
1400.11374,0.29232
1398.62395,0.34394
1397.13416,0.37497
1395.64437,0.43078
1394.15458,0.43987
1392.66479,0.46342
1391.17501,0.44576
1389.68522,0.43500
1388.19543,0.43631
1386.70564,0.44521
1385.21585,0.45414
1383.72606,0.50780
1382.23628,0.52230
1380.74649,0.53304
1379.25670,0.52045
1377.76691,0.50134
1376.27712,0.51769
1374.78733,0.55435
1373.29755,0.57488
1371.80776,0.62570
1370.31797,0.73225
1368.82818,0.77574
1367.33839,0.81926
1365.84860,0.81623
1364.35881,0.88509
1362.86903,0.90447
1361.37924,0.95792
1359.88945,0.96120
1358.39966,0.94595
1356.90987,0.97130
1355.42008,0.97365
1353.93030,0.92102
1352.44051,0.85157
1350.95072,0.78216
1349.46093,0.73994
1347.97114,0.68262
1346.48135,0.66041
1344.99156,0.57531
1343.50178,0.57550
1342.01199,0.52381
1340.52220,0.47972
1339.03241,0.45869
1337.54262,0.42739
1336.05283,0.42671
1334.56305,0.42606
1333.07326,0.39657
1331.58347,0.35610
1330.09368,0.30845
1328.60389,0.31343
1327.11410,0.29954
1325.62432,0.27467
1324.13453,0.24915
1322.64474,0.19650
1321.15495,0.19923
1319.66516,0.17329
1318.17537,0.14738
1316.68558,0.16671
1315.19580,0.17713
1313.70601,0.17693
1312.21622,0.21492
1310.72643,0.17009
1309.23664,0.16276
1307.74685,0.16681
1306.25707,0.15164
1304.76728,0.15421
1303.27749,0.15681
1301.78770,0.14414
1300.29791,0.14147
1298.80812,0.17356
1297.31834,0.18643
1295.82855,0.23405
1294.33876,0.25111
1292.84897,0.29536
1291.35918,0.32004
1289.86939,0.33170
1288.37960,0.34338
1286.88982,0.30627
1285.40003,0.35893
1283.91024,0.39203
1282.42045,0.38183
1280.93066,0.38852
1279.44087,0.35707
1277.95109,0.34422
1276.46130,0.36613
1274.97151,0.35231
1273.48172,0.33853
1271.99193,0.37084
1270.50214,0.40044
1269.01235,0.41288
1267.52257,0.43051
1266.03278,0.38147
1264.54299,0.44626
1263.05320,0.41792
1261.56341,0.42209
1260.07362,0.42630
1258.58384,0.37811
1257.09405,0.39733
1255.60426,0.41556
1254.11447,0.35886
1252.62468,0.36168
1251.13489,0.32809
1249.64511,0.36191
1248.15532,0.34248
1246.66553,0.33769
1245.17574,0.33293
1243.68595,0.29262
1242.19616,0.26987
1240.70637,0.22584
1239.21659,0.21760
1237.72680,0.19323
1236.23701,0.16098
1234.74722,0.19994
1233.25743,0.20833
1231.76764,0.21674
1230.27786,0.16125
1228.78807,0.15185
1227.29828,0.18409
1225.80849,0.15654
1224.31870,0.17199
1222.82891,0.10977
1221.33912,0.11807
1219.84934,0.13190
1218.35955,0.14576
1216.86976,0.11084
1215.37997,0.13336
1213.89018,0.10640
1212.40039,0.14136
1210.91061,0.14644
1209.42082,0.10514
1207.93103,0.07745
1206.44124,0.04980
1204.95145,0.04400
1203.46166,0.01452
1201.97188,0.00501
1200.48209,0.03575
1198.99230,0.06274
1197.50251,0.04094
1196.01272,0.00439
1194.52293,0.00568
1193.03314,0.00701
1191.54336,0.06252
1190.05357,0.09021
1188.56378,0.09318
1187.07399,0.04323
1185.58420,0.00501
1184.09441,0.03329
1182.60463,0.04649
1181.11484,0.05971
1179.62505,0.05921
1178.13526,0.08625
1176.64547,0.08650
1175.15568,0.14180
1173.66589,0.12080
1172.17611,0.20951
1170.68632,0.21367
1169.19653,0.21786
1167.70674,0.23068
1166.21695,0.24216
1164.72716,0.28358
1163.23738,0.29134
1161.74759,0.28194
1160.25780,0.27361
1158.76801,0.28490
1157.27822,0.29622
1155.78843,0.30758
1154.29865,0.35850
1152.80886,0.40018
1151.31907,0.43570
1149.82928,0.48122
1148.33949,0.50580
1146.84970,0.50531
1145.35991,0.50485
1143.87013,0.49687
1142.38034,0.54392
1140.89055,0.60304
1139.40076,0.68522
1137.91097,0.71484
1136.42118,0.77233
1134.93140,0.77399
1133.44161,0.77568
1131.95182,0.82743
1130.46203,0.88917
1128.97224,0.89422
1127.48245,0.92475
1125.99266,0.94774
1124.50288,0.98349
1123.01309,0.98076
1121.52330,0.97806
1120.03351,1.01768
1118.54372,0.96107
1117.05393,0.91893
1115.56415,0.87166
1114.07436,0.87531
1112.58457,0.85819
1111.09478,0.84110
1109.60499,0.88370
1108.11520,0.90054
1106.62542,0.91157
1105.13563,0.89443
1103.64584,0.84433
1102.15605,0.80835
1100.66626,0.79733
1099.17647,0.78634
1097.68668,0.77142
1096.19690,0.82840
1094.70711,0.86272
1093.21732,0.89569
1091.72753,0.97133
1090.23774,0.98545
1088.74795,0.99961
1087.25817,1.12589
1085.76838,1.20509
1084.27859,1.21522
1082.78880,1.13805
1081.29901,1.16027
1079.80922,1.15915
1078.31943,1.16477
1076.82965,1.17041
1075.33986,1.22233
1073.85007,1.27291
1072.36028,1.31801
1070.87049,1.26242
1069.38070,1.28558
1067.89092,1.27526
1066.40113,1.26497
1064.91134,1.28617
1063.42155,1.24689
1061.93176,1.17429
1060.44197,1.13920
1058.95219,1.11067
1057.46240,1.11622
1055.97261,1.12179
1054.48282,1.11330
1052.99303,1.02198
1051.50324,0.93964
1050.01345,0.86179
1048.52367,0.80701
1047.03388,0.76636
1045.54409,0.72575
1044.05430,0.62637
1042.56451,0.58272
1041.07472,0.54667
1039.58494,0.50652
1038.09515,0.47156
1036.60536,0.45864
1035.11557,0.44575
1033.62578,0.43770
1032.13599,0.42212
1030.64620,0.41414
1029.15642,0.43232
1027.66663,0.46119
1026.17684,0.49009
1024.68705,0.63488
1023.19726,0.78933
1021.70747,0.93488
1020.21769,1.13134
1018.72790,1.31821
1017.23811,1.39526
1015.74832,1.47234
1014.25853,1.66240
1012.76874,1.80539
1011.27896,1.89546
1009.78917,2.00000
1008.29938,1.96774
1006.80959,1.94135
1005.31980,1.91500
1003.83001,1.96432
1002.34022,1.90502
1000.85044,1.85332
999.36065,1.76143
997.87086,1.70378
996.38107,1.64616
994.89128,1.62553
993.40149,1.56195
991.91171,1.52316
990.42192,1.42630
988.93213,1.33120
987.44234,1.31846
985.95255,1.30576
984.46276,1.31938
982.97297,1.31620
981.48319,1.19959
979.99340,1.05310
978.50361,1.01511
977.01382,0.97716
975.52403,0.92221
974.03424,0.89378
972.54446,0.78458
971.05467,0.68125
969.56488,0.59584
968.07509,0.57509
966.58530,0.55438
965.09551,0.52991
963.60573,0.50273
962.11594,0.47558
960.62615,0.42130
959.13636,0.40108
957.64657,0.38090
956.15678,0.37588
954.66699,0.32138
953.17721,0.36662
951.68742,0.38370
950.19763,0.36987
948.70784,0.35607
947.21805,0.34745
945.72826,0.33440
944.23848,0.38877
942.74869,0.46311
941.25890,0.57633
939.76911,0.59401
938.27932,0.61171
936.78953,0.62877
935.29974,0.68607
933.80996,0.79361
932.32017,0.86439
930.83038,0.87143
929.34059,0.87849
927.85080,0.92874
926.36101,0.93364
924.87123,1.02727
923.38144,1.01435
921.89165,1.00610
920.40186,0.99789
918.91207,0.96857
917.42228,0.93893
915.93250,0.94061
914.44271,0.91034
912.95292,0.88854
911.46313,0.86676
909.97334,0.77299
908.48355,0.71157
906.99376,0.59070
905.50398,0.48430
904.01419,0.48881
902.52440,0.49336
901.03461,0.45066
899.54482,0.43894
898.05503,0.46128
896.56525,0.50257
895.07546,0.54028
893.58567,0.57802
892.09588,0.59465
890.60609,0.56833
889.11630,0.65275
887.62651,0.68563
886.13673,0.71941
884.64694,0.75321
883.15715,0.82916
881.66736,0.90618
880.17757,0.98289
878.68778,1.03229
877.19800,1.08172
875.70821,1.17159
874.21842,1.24017
872.72863,1.31909
871.23884,1.44034
869.74905,1.49114
868.25927,1.54197
866.76948,1.51444
865.27969,1.57805
863.78990,1.58565
862.30011,1.61117
860.81032,1.62554
859.32053,1.63994
857.83075,1.66383
856.34096,1.62312
854.85117,1.54462
853.36138,1.42489
851.87159,1.36364
850.38180,1.30243
848.89202,1.18967
847.40223,1.11717
845.91244,1.00964
844.42265,0.94047
842.93286,0.87133
841.44307,0.75117
839.95329,0.68743
838.46350,0.60618
836.97371,0.57069
835.48392,0.53420
833.99413,0.49775
832.50434,0.44551
831.01455,0.36923
829.52477,0.40026
828.03498,0.39212
826.54519,0.39983
825.05540,0.40757
823.56561,0.37752
822.07582,0.31829
820.58604,0.23226
819.09625,0.21795
817.60646,0.20368
816.11667,0.15591
814.62688,0.10165
813.13709,0.11480
811.64730,0.04684
810.15752,0.06745
808.66773,0.08809
807.17794,0.10481
805.68815,0.13153
804.19836,0.09811
802.70857,0.11252
801.21879,0.12696
799.72900,0.08882
798.23921,0.06172
796.74942,0.06010
795.25963,0.06211
793.76984,0.06416
792.28006,0.13208
790.79027,0.17940
789.30048,0.11879
787.81069,0.06991
786.32090,0.07057
784.83111,0.07126
783.34132,0.03554
781.85154,0.00501
780.36175,0.04446
778.87196,0.03942
777.38217,0.03441
775.89238,0.03751
774.40259,0.03549
772.91281,0.05447
771.42302,0.04168
769.93323,0.02893
768.44344,0.05385
766.95365,0.04923
765.46386,0.06115
763.97407,0.01088
762.48429,0.04641
760.99450,0.08198
759.50471,0.07958
758.01492,0.04215
756.52513,0.02195
755.03534,0.01346
753.54556,0.00501
752.05577,0.03214
750.56598,0.04693
749.07619,0.08548
747.58640,0.11151
746.09661,0.13756
744.60683,0.09438
743.11704,0.03472
741.62725,0.00501
740.13746,0.02133
738.64767,0.03768
737.15788,0.08071
735.66809,0.03473
734.17831,0.01009
732.68852,0.04583
731.19873,0.08159
729.70894,0.10278
728.21915,0.09993
726.72936,0.05345
725.23958,0.04344
723.74979,0.04945
722.26000,0.05550
720.77021,0.06175
719.28042,0.12785
717.79063,0.19639
716.30084,0.17076
714.81106,0.14516
713.32127,0.15432
711.83148,0.15629
710.34169,0.12666
708.85190,0.13832
707.36211,0.15001
705.87233,0.15864
704.38254,0.10025
702.89275,0.10895
701.40296,0.10340
699.91317,0.09789
698.42338,0.08845
696.93360,0.13750
695.44381,0.19861
693.95402,0.20147
692.46423,0.20437
690.97444,0.22810
689.48465,0.29277
687.99486,0.31072
686.50508,0.31426
685.01529,0.31783
683.52550,0.35066
682.03571,0.29997
680.54592,0.27820
679.05613,0.27777
677.56635,0.27738
676.07656,0.30967
674.58677,0.29181
673.09698,0.17152
671.60719,0.15561
670.11740,0.13973
668.62761,0.11511
667.13783,0.11735
665.64804,0.09743
664.15825,0.07756
662.66846,0.07198
661.17867,0.04133
659.68888,0.05954
658.19910,0.04959
656.70931,0.03966
655.21952,0.02634
653.72973,0.08155
652.23994,0.12132
650.75015,0.09581
649.26037,0.07032
647.77058,0.04934
646.28079,0.00501
644.79100,0.07266
643.30121,0.06609
641.81142,0.05955
640.32163,0.02553
638.83185,0.03452
637.34206,0.02945
635.85227,0.03111
634.36248,0.03281
632.87269,0.01511
631.38290,0.00501
629.89312,0.01209
628.40333,0.01559
626.91354,0.01913
625.42375,0.00396
623.93396,0.07512
622.44417,0.07376
620.95438,0.07244
619.46460,0.10725
617.97481,0.04032
616.48502,0.05044
614.99523,0.03395
613.50544,0.01748
612.01565,0.07033
610.52587,0.10430
609.03608,0.15239
607.54629,0.15617
606.05650,0.15998
604.56671,0.14182
603.07692,0.19520
601.58714,0.18191
600.09735,0.16865
598.60756,0.17125
597.11777,0.16734
595.62798,0.17446
594.13819,0.15514
592.64840,0.13586
591.15862,0.11592
589.66883,0.15686
588.17904,0.19921
586.68925,0.21255
585.19946,0.22591
583.70967,0.28830
582.21989,0.18672
580.73010,0.20585
579.24031,0.22502
577.75052,0.22633
576.26073,0.25794
574.77094,0.32911
573.28115,0.34445
571.79137,0.35981
570.30158,0.42145
568.81179,0.42709
567.32200,0.46696
565.83221,0.50687
564.34242,0.60817
562.85264,0.67960
561.36285,0.74762
559.87306,0.75860
558.38327,0.76961
556.89348,0.86902
555.40369,1.00077
553.91391,1.03302
552.42412,1.06530
550.93433,1.15761
549.44454,1.25339
547.95475,1.16870
546.46496,1.16759
544.97517,1.16651
543.48539,1.14174
541.99560,1.17270
540.50581,1.17361
539.01602,1.17455
537.52623,1.22073
536.03644,1.13698
534.54666,1.12203
533.05687,1.14561
531.56708,1.16923
530.07729,1.09077
528.58750,1.06081
527.09771,1.00854
525.60792,0.95630
524.11814,0.98352
522.62835,0.93925
521.13856,0.87370
519.64877,0.81110
518.15898,0.74853
516.66919,0.63597
515.17941,0.71323
513.68962,0.74290
512.19983,0.77260
510.71004,0.79598
509.22025,0.92287
507.73046,0.80225
506.24068,0.77655
504.75089,0.75089
503.26110,0.73660
501.77131,0.75569
500.28152,0.74491
498.79173,0.73415
497.30194,0.68286
495.81216,0.73578
494.32237,0.77016
492.83258,0.80457
491.34279,0.63548
489.85300,0.58262
488.36321,0.51227
486.87343,0.46601
485.38364,0.41979
483.89385,0.37222
482.40406,0.31884
480.91427,0.29815
479.42448,0.27750
477.93469,0.19327
476.44491,0.11251
474.95512,0.10673
473.46533,0.10099
471.97554,0.05849
470.48575,0.08994
468.99596,0.06159
467.50618,0.03328
466.01639,0.00501
464.52660,0.04037
463.03681,0.12287
461.54702,0.16174
460.05723,0.20064
458.56745,0.29046
457.07766,0.37859
455.58787,0.41191
454.09808,0.44527
452.60829,0.60844
451.11850,0.66300
449.62871,0.70402
448.13893,0.74506
446.64914,0.88086
445.15935,0.93142
443.66956,0.96379
442.17977,0.95185
440.68998,0.93993
439.20020,0.95590
437.71041,0.90142
436.22062,0.91332
434.73083,0.92526
433.24104,0.96301
431.75125,1.02830
430.26146,1.01471
428.77168,1.00116
427.28189,0.95240
425.79210,1.06733
424.30231,1.05920
422.81252,1.05110
421.32273,1.02929
419.83295,1.08658
418.34316,1.11416
416.85337,1.14178
415.36358,1.10255
413.87379,1.07264
412.38400,1.07869
410.89422,1.08478
409.40443,0.95045
407.91464,0.78142
406.42485,0.64646
404.93506,0.62672
403.44527,0.60700
401.95548,0.55259
400.46570,0.55597
398.97591,0.51847
397.48612,0.48101
395.99633,0.43429
394.50654,0.34566
393.01675,0.36192
391.52697,0.37821
390.03718,0.42857
388.54739,0.47622
387.05760,0.49054
385.56781,0.50490
384.07802,0.40721
382.58824,0.32192
381.09845,0.32520
379.60866,0.32851
378.11887,0.35713
376.62908,0.22555
375.13929,0.19939
373.64950,0.17326
372.15972,0.14149
370.66993,0.14379
369.18014,0.15609
367.69035,0.16842
366.20056,0.19763
364.71077,0.19593
363.22099,0.18549
361.73120,0.17509
360.24141,0.15938
358.75162,0.11312
357.26183,0.10985
355.77204,0.10662
354.28225,0.13024
352.79247,0.10679
351.30268,0.09695
349.81289,0.08715
348.32310,0.14458
346.83331,0.11301
345.34352,0.11052
343.85374,0.10806
342.36395,0.10855
340.87416,0.06748
339.38437,0.08340
337.89458,0.09936
336.40479,0.12171
334.91501,0.04404
333.42522,0.02451
331.93543,0.00501
330.44564,0.03477
328.95585,0.00715
327.46606,0.06895
325.97627,0.13079
324.48649,0.14314
322.99670,0.06546
321.50691,0.03857
320.01712,0.01172
318.52733,0.00501
317.03754,0.00765
315.54776,0.02424
314.05797,0.04087
312.56818,0.09140
311.07839,0.10792
309.58860,0.07272
308.09881,0.03756
306.60902,0.05727
305.11924,0.00000
303.62945,0.02218
302.13966,0.00501
300.64987,0.03404
299.16008,0.00501
