1778.52000,0.04983
1777.03021,0.05468
1775.54042,0.04928
1774.05063,0.06930
1772.56085,0.01485
1771.07106,0.08175
1769.58127,0.03931
1768.09148,0.03735
1766.60169,0.04813
1765.11190,0.12397
1763.62212,0.06193
1762.13233,0.16325
1760.64254,0.13778
1759.15275,0.11871
1757.66296,0.09970
1756.17317,0.05854
1754.68339,0.00000
1753.19360,0.02017
1751.70381,0.09748
1750.21402,0.03215
1748.72423,0.10877
1747.23444,0.09904
1745.74465,0.14723
1744.25487,0.14633
1742.76508,0.07572
1741.27529,0.07731
1739.78550,0.03852
1738.29571,0.01485
1736.80592,0.05815
1735.31614,0.08090
1733.82635,0.11083
1732.33656,0.00288
1730.84677,0.10111
1729.35698,0.06937
1727.86719,0.01787
1726.37740,0.00131
1724.88762,0.02285
1723.39783,0.03811
1721.90804,0.03440
1720.41825,0.12032
1718.92846,0.10244
1717.43867,0.04895
1715.94889,0.12156
1714.45910,0.10227
1712.96931,0.01485
1711.47952,0.04140
1709.98973,0.09574
1708.49994,0.07801
1707.01016,0.11899
1705.52037,0.16002
1704.03058,0.07665
1702.54079,0.03931
1701.05100,0.05831
1699.56121,0.08609
1698.07142,0.09094
1696.58164,0.13072
1695.09185,0.15390
1693.60206,0.18269
1692.11227,0.12751
1690.62248,0.14610
1689.13269,0.12829
1687.64291,0.16681
1686.15312,0.16416
1684.66333,0.12432
1683.17354,0.21136
1681.68375,0.19382
1680.19396,0.20804
1678.70417,0.15969
1677.21439,0.13439
1675.72460,0.06157
1674.23481,0.11010
1672.74502,0.14125
1671.25523,0.19385
1669.76544,0.14108
1668.27566,0.07171
1666.78587,0.07612
1665.29608,0.15590
1663.80629,0.17390
1662.31650,0.19116
1660.82671,0.22988
1659.33693,0.20364
1657.84714,0.16399
1656.35735,0.08793
1654.86756,0.05472
1653.37777,0.08579
1651.88798,0.04636
1650.39819,0.05692
1648.90841,0.11273
1647.41862,0.03541
1645.92883,0.05288
1644.43904,0.07040
1642.94925,0.14863
1641.45946,0.18568
1639.96968,0.13321
1638.47989,0.22666
1636.99010,0.18144
1635.50031,0.19731
1634.01052,0.11097
1632.52073,0.05560
1631.03094,0.07084
1629.54116,0.06077
1628.05137,0.04442
1626.56158,0.08044
1625.07179,0.05468
1623.58200,0.06702
1622.09221,0.15315
1620.60243,0.17274
1619.11264,0.15751
1617.62285,0.18038
1616.13306,0.22075
1614.64327,0.23660
1613.15348,0.14151
1611.66370,0.09167
1610.17391,0.10293
1608.68412,0.18004
1607.19433,0.15414
1605.70454,0.23057
1604.21475,0.19250
1602.72496,0.15448
1601.23518,0.15735
1599.74539,0.16027
1598.25560,0.12995
1596.76581,0.15280
1595.27602,0.17094
1593.78623,0.07102
1592.29645,0.04806
1590.80666,0.09015
1589.31687,0.10614
1587.82708,0.13090
1586.33729,0.10816
1584.84750,0.19962
1583.35771,0.15241
1581.86793,0.15282
1580.37814,0.15170
1578.88835,0.13240
1577.39856,0.09175
1575.90877,0.12567
1574.41898,0.15172
1572.92920,0.06763
1571.43941,0.09459
1569.94962,0.07681
1568.45983,0.05908
1566.97004,0.01485
1565.48025,0.06113
1563.99047,0.13759
1562.50068,0.10708
1561.01089,0.12181
1559.52110,0.11044
1558.03131,0.10467
1556.54152,0.14414
1555.05173,0.11629
1553.56195,0.08848
1552.07216,0.05281
1550.58237,0.09171
1549.09258,0.11719
1547.60279,0.13242
1546.11300,0.00976
1544.62322,0.14392
1543.13343,0.21314
1541.64364,0.16190
1540.15385,0.13293
1538.66406,0.10400
1537.17427,0.08306
1535.68448,0.01778
1534.19470,0.10476
1532.70491,0.04197
1531.21512,0.02045
1529.72533,0.04339
1528.23554,0.01485
1526.74575,0.11819
1525.25597,0.13280
1523.76618,0.12922
1522.27639,0.12571
1520.78660,0.04138
1519.29681,0.09743
1517.80702,0.06633
1516.31724,0.05511
1514.82745,0.16127
1513.33766,0.14817
1511.84787,0.13513
1510.35808,0.12095
1508.86829,0.12189
1507.37850,0.08721
1505.88872,0.07479
1504.39893,0.01485
1502.90914,0.08263
1501.41935,0.08387
1499.92956,0.16047
1498.43977,0.19432
1496.94999,0.18542
1495.46020,0.25664
1493.97041,0.26767
1492.48062,0.28589
1490.99083,0.38898
1489.50104,0.45329
1488.01125,0.43164
1486.52147,0.41004
1485.03168,0.44993
1483.54189,0.56995
1482.05210,0.68686
1480.56231,0.70393
1479.07252,0.78368
1477.58274,0.77153
1476.09295,0.94890
1474.60316,0.98839
1473.11337,1.03348
1471.62358,1.10479
1470.13379,1.03187
1468.64401,1.05652
1467.15422,0.96310
1465.66443,0.91095
1464.17464,0.85886
1462.68485,0.89404
1461.19506,0.71918
1459.70527,0.61018
1458.21549,0.59715
1456.72570,0.53266
1455.23591,0.39766
1453.74612,0.41175
1452.25633,0.35614
1450.76654,0.32675
1449.27676,0.23874
1447.78697,0.12542
1446.29718,0.20876
1444.80739,0.23230
1443.31760,0.25590
1441.82781,0.17530
1440.33802,0.05195
1438.84824,0.08483
1437.35845,0.04959
1435.86866,0.09843
1434.37887,0.12672
1432.88908,0.10195
1431.39929,0.08912
1429.90951,0.18813
1428.41972,0.09772
1426.92993,0.08109
1425.44014,0.10337
1423.95035,0.07417
1422.46056,0.04502
1420.97078,0.04368
1419.48099,0.13277
1417.99120,0.11806
1416.50141,0.14938
1415.01162,0.11892
1413.52183,0.11865
1412.03204,0.23021
1410.54226,0.16028
1409.05247,0.30603
1407.56268,0.18865
1406.07289,0.26237
1404.58310,0.29255
1403.09331,0.32279
1401.60353,0.33563
1400.11374,0.35726
1398.62395,0.38131
1397.13416,0.46647
1395.64437,0.45813
1394.15458,0.45698
1392.66479,0.54706
1391.17501,0.52779
1389.68522,0.49826
1388.19543,0.45453
1386.70564,0.48933
1385.21585,0.52418
1383.72606,0.56861
1382.23628,0.59406
1380.74649,0.57676
1379.25670,0.50719
1377.76691,0.55342
1376.27712,0.53391
1374.78733,0.56281
1373.29755,0.63616
1371.80776,0.66754
1370.31797,0.72277
1368.82818,0.79945
1367.33839,0.87619
1365.84860,0.93872
1364.35881,0.99337
1362.86903,1.06076
1361.37924,1.12821
1359.88945,1.02685
1358.39966,0.99927
1356.90987,1.10335
1355.42008,0.96490
1353.93030,0.93035
1352.44051,0.86653
1350.95072,0.80276
1349.46093,0.78265
1347.97114,0.75467
1346.48135,0.77827
1344.99156,0.64971
1343.50178,0.65123
1342.01199,0.55608
1340.52220,0.52837
1339.03241,0.44443
1337.54262,0.47787
1336.05283,0.43170
1334.56305,0.38558
1333.07326,0.31058
1331.58347,0.41876
1330.09368,0.36766
1328.60389,0.32453
1327.11410,0.31714
1325.62432,0.28126
1324.13453,0.22403
1322.64474,0.10502
1321.15495,0.11132
1319.66516,0.12600
1318.17537,0.14073
1316.68558,0.02987
1315.19580,0.16006
1313.70601,0.23165
1312.21622,0.06942
1310.72643,0.10306
1309.23664,0.10108
1307.74685,0.12769
1306.25707,0.12820
1304.76728,0.13709
1303.27749,0.14603
1301.78770,0.04127
1300.29791,0.04754
1298.80812,0.11730
1297.31834,0.16650
1295.82855,0.18641
1294.33876,0.22859
1292.84897,0.28270
1291.35918,0.25522
1289.86939,0.25079
1288.37960,0.24641
1286.88982,0.29678
1285.40003,0.25842
1283.91024,0.24231
1282.42045,0.34517
1280.93066,0.23642
1279.44087,0.31799
1277.95109,0.44321
1276.46130,0.32352
1274.97151,0.35254
1273.48172,0.38161
1271.99193,0.31361
1270.50214,0.41295
1269.01235,0.43624
1267.52257,0.47861
1266.03278,0.44730
1264.54299,0.38196
1263.05320,0.44114
1261.56341,0.45519
1260.07362,0.46930
1258.58384,0.53736
1257.09405,0.52938
1255.60426,0.41760
1254.11447,0.39149
1252.62468,0.35275
1251.13489,0.29346
1249.64511,0.35075
1248.15532,0.34310
1246.66553,0.32480
1245.17574,0.30655
1243.68595,0.29034
1242.19616,0.28291
1240.70637,0.32943
1239.21659,0.15880
1237.72680,0.17928
1236.23701,0.22835
1234.74722,0.30918
1233.25743,0.28345
1231.76764,0.25777
1230.27786,0.20955
1228.78807,0.21926
1227.29828,0.29482
1225.80849,0.23804
1224.31870,0.26298
1222.82891,0.11594
1221.33912,0.13702
1219.84934,0.14745
1218.35955,0.15794
1216.86976,0.11815
1215.37997,0.11725
1213.89018,0.11324
1212.40039,0.12434
1210.91061,0.22746
1209.42082,0.23630
1207.93103,0.19287
1206.44124,0.14949
1204.95145,0.08159
1203.46166,0.03753
1201.97188,0.01652
1200.48209,0.09466
1198.99230,0.14589
1197.50251,0.06876
1196.01272,0.07413
1194.52293,0.04268
1193.03314,0.01130
1191.54336,0.11098
1190.05357,0.11955
1188.56378,0.22489
1187.07399,0.10990
1185.58420,0.05997
1184.09441,0.01485
1182.60463,0.06430
1181.11484,0.11381
1179.62505,0.16852
1178.13526,0.17097
1176.64547,0.16079
1175.15568,0.14590
1173.66589,0.20084
1172.17611,0.18369
1170.68632,0.25022
1169.19653,0.31682
1167.70674,0.25861
1166.21695,0.21155
1164.72716,0.26840
1163.23738,0.24761
1161.74759,0.23560
1160.25780,0.27121
1158.76801,0.27160
1157.27822,0.27204
1155.78843,0.33714
1154.29865,0.41658
1152.80886,0.46673
1151.31907,0.48919
1149.82928,0.51409
1148.33949,0.49861
1146.84970,0.53749
1145.35991,0.57642
1143.87013,0.48262
1142.38034,0.54188
1140.89055,0.55442
1139.40076,0.56067
1137.91097,0.67163
1136.42118,0.65738
1134.93140,0.71731
1133.44161,0.77729
1131.95182,0.80998
1130.46203,0.91487
1128.97224,0.89693
1127.48245,0.94485
1125.99266,0.96666
1124.50288,0.96474
1123.01309,0.95931
1121.52330,0.95393
1120.03351,0.94267
1118.54372,0.92115
1117.05393,0.85530
1115.56415,0.95518
1114.07436,0.87437
1112.58457,0.86655
1111.09478,0.85879
1109.60499,0.94462
1108.11520,0.88227
1106.62542,0.95157
1105.13563,0.94719
1103.64584,0.89293
1102.15605,0.85220
1100.66626,0.79924
1099.17647,0.74632
1097.68668,0.79930
1096.19690,0.80874
1094.70711,0.84280
1093.21732,0.86820
1091.72753,0.90792
1090.23774,0.97227
1088.74795,1.03668
1087.25817,1.15426
1085.76838,1.16725
1084.27859,1.20090
1082.78880,1.22668
1081.29901,1.23587
1079.80922,1.14444
1078.31943,1.16999
1076.82965,1.19559
1075.33986,1.21293
1073.85007,1.26124
1072.36028,1.29771
1070.87049,1.25338
1069.38070,1.34466
1067.89092,1.29370
1066.40113,1.24279
1064.91134,1.36436
1063.42155,1.34646
1061.93176,1.23904
1060.44197,1.17844
1058.95219,1.18290
1057.46240,1.11290
1055.97261,1.04296
1054.48282,1.09436
1052.99303,1.03324
1051.50324,0.99359
1050.01345,0.74390
1048.52367,0.76540
1047.03388,0.67557
1045.54409,0.58579
1044.05430,0.63837
1042.56451,0.47379
1041.07472,0.44562
1039.58494,0.46348
1038.09515,0.46396
1036.60536,0.37768
1035.11557,0.29146
1033.62578,0.41101
1032.13599,0.43391
1030.64620,0.34270
1029.15642,0.32765
1027.66663,0.38955
1026.17684,0.45151
1024.68705,0.55078
1023.19726,0.75714
1021.70747,0.86762
1020.21769,1.05109
1018.72790,1.25206
1017.23811,1.30483
1015.74832,1.35766
1014.25853,1.60953
1012.76874,1.78218
1011.27896,1.85657
1009.78917,2.00000
1008.29938,1.91834
1006.80959,1.86130
1005.31980,1.80432
1003.83001,1.96224
1002.34022,1.78962
1000.85044,1.79544
999.36065,1.67763
997.87086,1.70457
996.38107,1.73155
994.89128,1.57586
993.40149,1.54786
991.91171,1.58968
990.42192,1.33823
988.93213,1.33418
987.44234,1.30957
985.95255,1.28502
984.46276,1.33266
982.97297,1.19485
981.48319,1.10942
979.99340,0.94714
978.50361,0.94625
977.01382,0.94541
975.52403,0.85703
974.03424,0.83370
972.54446,0.76446
971.05467,0.67465
969.56488,0.55002
968.07509,0.48847
966.58530,0.42697
965.09551,0.35324
963.60573,0.31762
962.11594,0.46280
960.62615,0.33295
959.13636,0.29155
957.64657,0.25020
956.15678,0.23388
954.66699,0.22317
953.17721,0.27355
951.68742,0.22172
950.19763,0.20205
948.70784,0.18243
947.21805,0.25127
945.72826,0.28290
944.23848,0.26305
942.74869,0.38041
941.25890,0.46928
939.76911,0.50668
938.27932,0.54414
936.78953,0.53012
935.29974,0.65409
933.80996,0.70043
932.32017,0.77695
930.83038,0.78732
929.34059,0.79776
927.85080,0.77059
926.36101,0.89569
924.87123,0.89637
923.38144,0.98749
921.89165,0.98393
920.40186,0.98042
918.91207,1.02731
917.42228,0.97833
915.93250,0.97697
914.44271,0.90035
912.95292,0.85312
911.46313,0.80595
909.97334,0.75407
908.48355,0.73950
906.99376,0.48558
905.50398,0.33240
904.01419,0.33346
902.52440,0.33457
901.03461,0.32821
899.54482,0.39643
898.05503,0.39176
896.56525,0.50290
895.07546,0.55304
893.58567,0.60324
892.09588,0.52824
890.60609,0.50562
889.11630,0.58531
887.62651,0.63653
886.13673,0.73893
884.64694,0.84138
883.15715,0.86898
881.66736,0.92834
880.17757,0.94812
878.68778,0.99411
877.19800,1.04016
875.70821,1.13858
874.21842,1.26164
872.72863,1.27218
871.23884,1.45956
869.74905,1.52649
868.25927,1.59348
866.76948,1.61137
865.27969,1.51596
863.78990,1.59817
862.30011,1.61465
860.81032,1.69142
859.32053,1.76826
857.83075,1.75477
856.34096,1.60498
854.85117,1.66137
853.36138,1.39912
851.87159,1.31886
850.38180,1.23866
848.89202,1.18428
847.40223,1.17593
845.91244,1.02811
844.42265,0.94100
842.93286,0.85394
841.44307,0.60402
839.95329,0.67284
838.46350,0.62836
836.97371,0.65845
835.48392,0.61646
833.99413,0.57452
832.50434,0.37646
831.01455,0.40042
829.52477,0.41097
828.03498,0.43822
826.54519,0.44491
825.05540,0.45166
823.56561,0.45608
822.07582,0.24414
820.58604,0.25422
819.09625,0.27586
817.60646,0.29754
816.11667,0.19839
814.62688,0.22376
813.13709,0.12868
811.64730,0.04634
810.15752,0.05205
808.66773,0.05781
807.17794,0.08108
805.68815,0.06713
804.19836,0.13252
802.70857,0.13732
801.21879,0.14217
799.72900,0.15064
798.23921,0.01648
796.74942,0.18203
795.25963,0.16411
793.76984,0.14625
792.28006,0.23031
790.79027,0.13764
789.30048,0.08545
787.81069,0.04759
786.32090,0.03119
784.83111,0.01485
783.34132,0.05141
781.85154,0.02381
780.36175,0.08268
778.87196,0.11940
777.38217,0.15618
775.89238,0.06855
774.40259,0.04836
772.91281,0.10037
771.42302,0.08584
769.93323,0.07136
768.44344,0.21629
766.95365,0.21302
765.46386,0.10358
763.97407,0.06792
762.48429,0.08661
760.99450,0.10537
759.50471,0.11427
758.01492,0.05901
756.52513,0.08704
755.03534,0.05092
753.54556,0.01485
752.05577,0.14388
750.56598,0.18814
749.07619,0.22850
747.58640,0.22332
746.09661,0.21820
744.60683,0.16438
743.11704,0.06939
741.62725,0.20832
740.13746,0.21134
738.64767,0.21443
737.15788,0.12362
735.66809,0.08043
734.17831,0.07694
732.68852,0.09768
731.19873,0.11848
729.70894,0.12863
728.21915,0.13487
726.72936,0.06902
725.23958,0.11977
723.74979,0.10160
722.26000,0.08348
720.77021,0.10585
719.28042,0.18694
717.79063,0.10874
716.30084,0.14674
714.81106,0.18478
713.32127,0.17413
711.83148,0.24519
710.34169,0.22910
708.85190,0.23170
707.36211,0.23435
705.87233,0.19860
704.38254,0.11772
702.89275,0.12807
701.40296,0.16701
699.91317,0.20600
698.42338,0.24981
696.93360,0.13829
695.44381,0.23849
693.95402,0.28841
692.46423,0.33838
690.97444,0.27861
689.48465,0.31244
687.99486,0.30669
686.50508,0.35846
685.01529,0.41029
683.52550,0.39678
682.03571,0.39362
680.54592,0.41985
679.05613,0.43385
677.56635,0.44791
676.07656,0.39503
674.58677,0.31604
673.09698,0.26962
671.60719,0.28032
670.11740,0.29108
668.62761,0.29080
667.13783,0.24856
665.64804,0.15087
664.15825,0.05325
662.66846,0.09441
661.17867,0.06428
659.68888,0.01914
658.19910,0.03390
656.70931,0.04873
655.21952,0.01485
653.72973,0.10455
652.23994,0.09126
650.75015,0.07524
649.26037,0.05927
647.77058,0.08815
646.28079,0.03226
644.79100,0.12864
643.30121,0.16442
641.81142,0.20026
640.32163,0.10020
638.83185,0.05410
637.34206,0.02391
635.85227,0.01935
634.36248,0.01485
632.87269,0.05271
631.38290,0.07952
629.89312,0.06754
628.40333,0.08416
626.91354,0.10084
625.42375,0.09140
623.93396,0.11849
622.44417,0.09331
620.95438,0.06819
619.46460,0.09782
617.97481,0.20916
616.48502,0.18658
614.99523,0.15969
613.50544,0.13286
612.01565,0.11124
610.52587,0.21730
609.03608,0.20134
607.54629,0.19177
606.05650,0.18226
604.56671,0.19976
603.07692,0.31720
601.58714,0.26346
600.09735,0.20977
598.60756,0.18230
597.11777,0.17153
595.62798,0.22503
594.13819,0.15809
592.64840,0.09120
591.15862,0.01485
589.66883,0.06537
588.17904,0.23644
586.68925,0.28389
585.19946,0.33140
583.70967,0.26798
582.21989,0.29340
580.73010,0.29034
579.24031,0.28733
577.75052,0.30816
576.26073,0.28862
574.77094,0.34603
573.28115,0.38208
571.79137,0.41820
570.30158,0.48528
568.81179,0.47236
567.32200,0.49952
565.83221,0.52673
564.34242,0.69234
562.85264,0.76921
561.36285,0.77083
559.87306,0.77012
558.38327,0.76947
556.89348,0.94724
555.40369,1.12349
553.91391,1.17532
552.42412,1.22721
550.93433,1.29897
549.44454,1.30817
547.95475,1.30393
546.46496,1.19868
544.97517,1.09348
543.48539,1.22498
541.99560,1.18688
540.50581,1.25585
539.01602,1.32488
537.52623,1.22908
536.03644,1.22529
534.54666,1.14227
533.05687,1.18497
531.56708,1.22772
530.07729,1.21384
528.58750,1.08586
527.09771,1.09706
525.60792,1.10832
524.11814,0.96861
522.62835,1.04142
521.13856,0.88200
519.64877,0.81381
518.15898,0.74567
516.66919,0.74497
515.17941,0.79585
513.68962,0.74809
512.19983,0.70039
510.71004,0.89652
509.22025,0.97378
507.73046,0.87669
506.24068,0.84150
504.75089,0.80636
503.26110,0.80140
501.77131,0.80600
500.28152,0.82493
498.79173,0.84392
497.30194,0.75356
495.81216,0.79882
494.32237,0.78943
492.83258,0.78009
491.34279,0.65269
489.85300,0.60779
488.36321,0.55265
486.87343,0.51935
485.38364,0.48612
483.89385,0.41052
482.40406,0.29217
480.91427,0.24919
479.42448,0.20626
477.93469,0.21650
476.44491,0.09758
474.95512,0.13092
473.46533,0.16432
471.97554,0.04714
470.48575,0.01485
468.99596,0.01319
467.50618,0.02271
466.01639,0.03228
464.52660,0.00900
463.03681,0.09439
461.54702,0.13465
460.05723,0.17496
458.56745,0.28192
457.07766,0.38259
455.58787,0.34894
454.09808,0.31535
452.60829,0.45423
451.11850,0.52738
449.62871,0.56847
448.13893,0.60962
446.64914,0.84465
445.15935,0.82764
443.66956,0.85745
442.17977,0.86394
440.68998,0.87048
439.20020,0.74983
437.71041,0.80286
436.22062,0.79450
434.73083,0.78620
433.24104,0.87903
431.75125,0.92831
430.26146,0.91462
428.77168,0.90099
427.28189,0.85848
425.79210,1.00391
424.30231,1.06258
422.81252,1.12131
421.32273,1.07347
419.83295,0.97732
418.34316,1.02749
416.85337,1.07772
415.36358,1.05071
413.87379,1.00790
412.38400,1.01191
410.89422,1.01599
409.40443,0.86949
407.91464,0.68182
406.42485,0.63532
404.93506,0.56707
403.44527,0.49888
401.95548,0.42559
400.46570,0.44669
398.97591,0.42782
397.48612,0.40900
395.99633,0.44374
394.50654,0.30255
393.01675,0.29182
391.52697,0.28115
390.03718,0.47467
388.54739,0.45023
387.05760,0.47064
385.56781,0.49110
384.07802,0.33999
382.58824,0.27138
381.09845,0.27338
379.60866,0.27543
378.11887,0.36078
376.62908,0.10371
375.13929,0.11537
373.64950,0.12708
372.15972,0.19315
370.66993,0.18317
369.18014,0.15938
367.69035,0.13563
366.20056,0.27407
364.71077,0.21991
363.22099,0.28314
361.73120,0.34643
360.24141,0.14895
358.75162,0.13465
357.26183,0.16322
355.77204,0.19185
354.28225,0.26333
352.79247,0.16047
351.30268,0.17736
349.81289,0.19431
348.32310,0.16613
346.83331,0.30517
345.34352,0.20208
343.85374,0.09905
342.36395,0.09238
340.87416,0.22530
339.38437,0.16920
337.89458,0.11316
336.40479,0.13684
334.91501,0.09478
333.42522,0.11897
331.93543,0.14322
330.44564,0.22579
328.95585,0.25529
327.46606,0.24125
325.97627,0.22727
324.48649,0.20705
322.99670,0.18690
321.50691,0.13469
320.01712,0.08253
318.52733,0.07760
317.03754,0.01485
315.54776,0.01717
314.05797,0.01954
312.56818,0.16903
311.07839,0.30034
309.58860,0.20616
308.09881,0.11204
306.60902,0.11588
305.11924,0.04922
303.62945,0.07417
302.13966,0.06280
300.64987,0.05188
299.16008,0.01485
