1778.52000,0.15788
1777.03021,0.04147
1775.54042,0.08520
1774.05063,0.29130
1772.56085,0.12206
1771.07106,0.23961
1769.58127,0.11068
1768.09148,0.16635
1766.60169,0.14219
1765.11190,0.35149
1763.62212,0.31433
1762.13233,0.24178
1760.64254,0.22938
1759.15275,0.37047
1757.66296,0.26286
1756.17317,0.28873
1754.68339,0.04147
1753.19360,0.05874
1751.70381,0.31837
1750.21402,0.35818
1748.72423,0.31374
1747.23444,0.13169
1745.74465,0.16978
1744.25487,0.34357
1742.76508,0.31311
1741.27529,0.14950
1739.78550,0.22602
1738.29571,0.25382
1736.80592,0.22624
1735.31614,0.30992
1733.82635,0.10936
1732.33656,0.22003
1730.84677,0.20643
1729.35698,0.28411
1727.86719,0.22196
1726.37740,-0.00000
1724.88762,0.14788
1723.39783,0.12040
1721.90804,0.19084
1720.41825,0.39032
1718.92846,0.24112
1717.43867,0.31428
1715.94889,0.24095
1714.45910,0.19668
1712.96931,0.04147
1711.47952,0.30311
1709.98973,0.23385
1708.49994,0.10920
1707.01016,0.18025
1705.52037,0.25146
1704.03058,0.25618
1702.54079,0.20107
1701.05100,0.27944
1699.56121,0.30687
1698.07142,0.42334
1696.58164,0.23113
1695.09185,0.35682
1693.60206,0.36046
1692.11227,0.20207
1690.62248,0.26160
1689.13269,0.26574
1687.64291,0.11673
1686.15312,0.23229
1684.66333,0.20360
1683.17354,0.33060
1681.68375,0.33334
1680.19396,0.21182
1678.70417,0.27266
1677.21439,0.12702
1675.72460,0.19486
1674.23481,0.10510
1672.74502,0.30435
1671.25523,0.27713
1669.76544,0.41673
1668.27566,0.17654
1666.78587,0.03427
1665.29608,0.14325
1663.80629,0.20351
1662.31650,0.47058
1660.82671,0.38008
1659.33693,0.62081
1657.84714,0.34621
1656.35735,0.09623
1654.86756,0.21747
1653.37777,0.10335
1651.88798,0.14715
1650.39819,0.13334
1648.90841,0.15081
1647.41862,0.12178
1645.92883,0.07180
1644.43904,0.02200
1642.94925,0.20454
1641.45946,0.50946
1639.96968,0.53458
1638.47989,0.35989
1636.99010,0.32756
1635.50031,0.11098
1634.01052,0.24564
1632.52073,0.34934
1631.03094,0.10660
1629.54116,0.12620
1628.05137,0.16596
1626.56158,0.04147
1625.07179,0.07611
1623.58200,0.05536
1622.09221,0.19032
1620.60243,0.40542
1619.11264,0.23852
1617.62285,0.23843
1616.13306,0.45403
1614.64327,0.25429
1613.15348,0.13693
1611.66370,0.18416
1610.17391,0.29154
1608.68412,0.30133
1607.19433,0.56235
1605.70454,0.38360
1604.21475,0.37721
1602.72496,0.37099
1601.23518,0.45714
1599.74539,0.38347
1598.25560,0.32108
1596.76581,0.38551
1595.27602,0.09459
1593.78623,0.21267
1592.29645,0.17093
1590.80666,0.29601
1589.31687,0.23682
1587.82708,0.41999
1586.33729,0.42558
1584.84750,0.35578
1583.35771,0.29726
1581.86793,0.40998
1580.37814,0.39401
1578.88835,0.46485
1577.39856,0.47142
1575.90877,0.46037
1574.41898,0.22508
1572.92920,0.16326
1571.43941,0.23715
1569.94962,0.13455
1568.45983,0.03213
1566.97004,0.17781
1565.48025,0.04147
1563.99047,0.23467
1562.50068,0.27694
1561.01089,0.25272
1559.52110,0.32642
1558.03131,0.24254
1556.54152,0.26325
1555.05173,0.34411
1553.56195,0.24739
1552.07216,0.10861
1550.58237,0.26107
1549.09258,0.18706
1547.60279,0.25764
1546.11300,0.19062
1544.62322,0.21042
1543.13343,0.27705
1541.64364,0.23941
1540.15385,0.24193
1538.66406,0.24462
1537.17427,0.38745
1535.68448,0.34602
1534.19470,0.18033
1532.70491,0.04147
1531.21512,0.16267
1529.72533,0.27070
1528.23554,0.24558
1526.74575,0.21841
1525.25597,0.25805
1523.76618,0.30675
1522.27639,0.37339
1520.78660,0.24688
1519.29681,0.21164
1517.80702,0.29210
1516.31724,0.27052
1514.82745,0.21356
1513.33766,0.25563
1511.84787,0.29786
1510.35808,0.41914
1508.86829,0.46282
1507.37850,0.28002
1505.88872,0.21293
1504.39893,0.07268
1502.90914,0.04147
1501.41935,0.17478
1499.92956,0.28382
1498.43977,0.33970
1496.94999,0.27575
1495.46020,0.48305
1493.97041,0.37943
1492.48062,0.45819
1490.99083,0.77041
1489.50104,0.92947
1488.01125,0.79319
1486.52147,0.65708
1485.03168,0.49224
1483.54189,0.59197
1482.05210,0.71631
1480.56231,0.61418
1479.07252,0.86106
1477.58274,0.89479
1476.09295,0.89536
1474.60316,1.11607
1473.11337,1.04809
1471.62358,1.09804
1470.13379,0.98595
1468.64401,1.02955
1467.15422,1.05555
1465.66443,1.06061
1464.17464,1.06583
1462.68485,0.74792
1461.19506,0.84568
1459.70527,0.34812
1458.21549,0.36844
1456.72570,0.57112
1455.23591,0.76286
1453.74612,0.65258
1452.25633,0.66244
1450.76654,0.38362
1449.27676,0.43381
1447.78697,0.43751
1446.29718,0.25917
1444.80739,0.25875
1443.31760,0.25849
1441.82781,0.14730
1440.33802,0.01628
1438.84824,0.07906
1437.35845,0.19978
1435.86866,0.37842
1434.37887,0.27061
1432.88908,0.13852
1431.39929,0.04658
1429.90951,0.04147
1428.41972,0.06295
1426.92993,0.27789
1425.44014,0.41968
1423.95035,0.23945
1422.46056,0.05939
1420.97078,0.05503
1419.48099,0.33079
1417.99120,0.29564
1416.50141,0.31399
1415.01162,0.15697
1413.52183,0.11343
1412.03204,0.14338
1410.54226,0.21793
1409.05247,0.40152
1407.56268,0.19644
1406.07289,0.19372
1404.58310,0.21561
1403.09331,0.23765
1401.60353,0.55094
1400.11374,0.55776
1398.62395,0.31145
1397.13416,0.27861
1395.64437,0.35258
1394.15458,0.65336
1392.66479,0.79654
1391.17501,0.62438
1389.68522,0.25684
1388.19543,0.34053
1386.70564,0.34439
1385.21585,0.34841
1383.72606,0.56590
1382.23628,0.29029
1380.74649,0.51256
1379.25670,0.45947
1377.76691,0.63985
1376.27712,0.72929
1374.78733,0.42784
1373.29755,0.65537
1371.80776,0.67865
1370.31797,0.98428
1368.82818,1.07232
1367.33839,1.16053
1365.84860,0.99116
1364.35881,1.01526
1362.86903,1.06174
1361.37924,1.35725
1359.88945,1.37962
1358.39966,1.19774
1356.90987,0.82938
1355.42008,1.19220
1353.93030,1.17523
1352.44051,1.11844
1350.95072,1.06181
1349.46093,1.09866
1347.97114,0.90682
1346.48135,0.97289
1344.99156,0.70805
1343.50178,0.65002
1342.01199,0.38107
1340.52220,0.55000
1339.03241,0.71688
1337.54262,0.52175
1336.05283,0.47787
1334.56305,0.43416
1333.07326,0.31951
1331.58347,0.42499
1330.09368,0.49953
1328.60389,0.57868
1327.11410,0.41581
1325.62432,0.61749
1324.13453,0.43717
1322.64474,0.16592
1321.15495,0.04147
1319.66516,0.12491
1318.17537,0.20852
1316.68558,0.33895
1315.19580,0.29624
1313.70601,0.23370
1312.21622,0.09355
1310.72643,0.15798
1309.23664,0.20036
1307.74685,0.40066
1306.25707,0.56557
1304.76728,0.38847
1303.27749,0.21153
1301.78770,0.21918
1300.29791,0.10923
1298.80812,0.06833
1297.31834,0.28756
1295.82855,0.47806
1294.33876,0.40654
1292.84897,0.48628
1291.35918,0.43286
1289.86939,0.41405
1288.37960,0.39541
1286.88982,0.26472
1285.40003,0.42749
1283.91024,0.34157
1282.42045,0.28914
1280.93066,0.55683
1279.44087,0.42697
1277.95109,0.43280
1276.46130,0.42992
1274.97151,0.36276
1273.48172,0.29576
1271.99193,0.18671
1270.50214,0.61332
1269.01235,0.70902
1267.52257,0.70267
1266.03278,0.52540
1264.54299,0.47050
1263.05320,0.81793
1261.56341,0.67893
1260.07362,0.54009
1258.58384,0.57251
1257.09405,0.58286
1255.60426,0.75337
1254.11447,0.59297
1252.62468,0.63048
1251.13489,0.53707
1249.64511,0.73489
1248.15532,0.47960
1246.66553,0.53555
1245.17574,0.59166
1243.68595,0.63683
1242.19616,0.57329
1240.70637,0.31882
1239.21659,0.28894
1237.72680,0.04147
1236.23701,0.32004
1234.74722,0.46767
1233.25743,0.44883
1231.76764,0.43015
1230.27786,0.63383
1228.78807,0.91545
1227.29828,0.59952
1225.80849,0.52373
1224.31870,0.28368
1222.82891,0.20156
1221.33912,0.23736
1219.84934,0.22221
1218.35955,0.20724
1216.86976,0.17910
1215.37997,0.25110
1213.89018,0.20996
1212.40039,0.28674
1210.91061,0.67475
1209.42082,0.55855
1207.93103,0.49695
1206.44124,0.43552
1204.95145,0.29315
1203.46166,0.21094
1201.97188,0.26665
1200.48209,0.41363
1198.99230,0.12305
1197.50251,0.03261
1196.01272,0.07120
1194.52293,0.20883
1193.03314,0.34663
1191.54336,0.36350
1190.05357,0.57828
1188.56378,0.68880
1187.07399,0.60840
1185.58420,0.16821
1184.09441,0.04147
1182.60463,0.21673
1181.11484,0.39215
1179.62505,0.36887
1178.13526,0.52351
1176.64547,0.45391
1175.15568,0.08006
1173.66589,0.22408
1172.17611,0.35494
1170.68632,0.44597
1169.19653,0.53716
1167.70674,0.78628
1166.21695,0.79559
1164.72716,0.46066
1163.23738,0.04147
1161.74759,0.18058
1160.25780,0.46429
1158.76801,0.43264
1157.27822,0.40116
1155.78843,0.73202
1154.29865,0.57422
1152.80886,0.90318
1151.31907,0.96346
1149.82928,0.89058
1148.33949,0.91119
1146.84970,0.82976
1145.35991,0.74849
1143.87013,0.66738
1142.38034,0.62643
1140.89055,0.64787
1139.40076,0.60058
1137.91097,0.72011
1136.42118,0.81980
1134.93140,0.81967
1133.44161,0.81971
1131.95182,0.87323
1130.46203,0.96025
1128.97224,0.96522
1127.48245,1.12811
1125.99266,1.11119
1124.50288,1.01889
1123.01309,1.10229
1121.52330,1.18585
1120.03351,1.12071
1118.54372,1.10905
1117.05393,1.00647
1115.56415,0.50187
1114.07436,0.63070
1112.58457,0.71969
1111.09478,0.80884
1109.60499,1.24256
1108.11520,1.14985
1106.62542,1.06396
1105.13563,1.01157
1103.64584,0.96601
1102.15605,0.80508
1100.66626,0.62542
1099.17647,0.44592
1097.68668,0.55433
1096.19690,0.54737
1094.70711,0.73388
1093.21732,0.78279
1091.72753,1.07405
1090.23774,1.09552
1088.74795,1.11715
1087.25817,1.15339
1085.76838,1.03870
1084.27859,1.21969
1082.78880,1.03201
1081.29901,1.08446
1079.80922,1.26150
1078.31943,1.17096
1076.82965,1.08059
1075.33986,0.95594
1073.85007,1.37805
1072.36028,1.25151
1070.87049,1.24512
1069.38070,1.19445
1067.89092,1.04729
1066.40113,0.90030
1064.91134,1.19453
1063.42155,1.47336
1061.93176,1.22132
1060.44197,0.83835
1058.95219,0.93993
1057.46240,0.88058
1055.97261,0.82139
1054.48282,1.01011
1052.99303,0.95903
1051.50324,0.67926
1050.01345,0.64851
1048.52367,0.63125
1047.03388,0.62082
1045.54409,0.61056
1044.05430,0.62045
1042.56451,0.59274
1041.07472,0.34300
1039.58494,0.21341
1038.09515,0.20175
1036.60536,0.25580
1035.11557,0.31001
1033.62578,0.23440
1032.13599,0.17674
1030.64620,0.12590
1029.15642,0.39963
1027.66663,0.32357
1026.17684,0.24767
1024.68705,0.45302
1023.19726,0.82517
1021.70747,0.98196
1020.21769,1.00560
1018.72790,1.02273
1017.23811,1.18557
1015.74832,1.34857
1014.25853,1.76615
1012.76874,1.73061
1011.27896,1.85523
1009.78917,2.00000
1008.29938,1.79387
1006.80959,1.76011
1005.31980,1.72651
1003.83001,1.65863
1002.34022,1.82200
1000.85044,1.72113
999.36065,1.69819
997.87086,1.54431
996.38107,1.39061
994.89128,1.76810
993.40149,1.88135
991.91171,1.71925
990.42192,1.41067
988.93213,1.06448
987.44234,1.09173
985.95255,1.11915
984.46276,1.34226
982.97297,1.50554
981.48319,1.21350
979.99340,0.77942
978.50361,0.76322
977.01382,0.74719
975.52403,0.83353
974.03424,0.66451
972.54446,0.81783
971.05467,0.64248
969.56488,0.58505
968.07509,0.55112
966.58530,0.51735
965.09551,0.26489
963.60573,0.04147
962.11594,0.29617
960.62615,0.25774
959.13636,0.22503
957.64657,0.19248
956.15678,0.59893
954.66699,0.32785
953.17721,0.35468
951.68742,0.19281
950.19763,0.21552
948.70784,0.23840
947.21805,0.04147
945.72826,0.15292
944.23848,0.23343
942.74869,0.22523
941.25890,0.58826
939.76911,0.48484
938.27932,0.38159
936.78953,0.42070
935.29974,0.43332
933.80996,0.53720
932.32017,0.77234
930.83038,0.78434
929.34059,0.79650
927.85080,0.78772
926.36101,0.79244
924.87123,0.88620
923.38144,0.63794
921.89165,0.81868
920.40186,0.99959
918.91207,1.20510
917.42228,1.00638
915.93250,1.14779
914.44271,1.13382
912.95292,1.10669
911.46313,1.07971
909.97334,1.18623
908.48355,0.91962
906.99376,0.17102
905.50398,0.08249
904.01419,0.06190
902.52440,0.04147
901.03461,0.18768
899.54482,0.34516
898.05503,0.49836
896.56525,0.62951
895.07546,0.74971
893.58567,0.87008
892.09588,0.77953
890.60609,0.61582
889.11630,0.72557
887.62651,0.89992
886.13673,0.83669
884.64694,0.77362
883.15715,0.99512
881.66736,0.79463
880.17757,0.78316
878.68778,0.88073
877.19800,0.97846
875.70821,0.92305
874.21842,1.14554
872.72863,1.30376
871.23884,1.55768
869.74905,1.56736
868.25927,1.57721
866.76948,1.82940
865.27969,1.54628
863.78990,1.56773
862.30011,1.82264
860.81032,1.78776
859.32053,1.75304
857.83075,1.79069
856.34096,1.92184
854.85117,1.72208
853.36138,1.44471
851.87159,1.29639
850.38180,1.14822
848.89202,1.06911
847.40223,1.11902
845.91244,1.26465
844.42265,1.13603
842.93286,1.00757
841.44307,0.80707
839.95329,0.74449
838.46350,0.96648
836.97371,1.13976
835.48392,1.00102
833.99413,0.86244
832.50434,0.58071
831.01455,0.35025
829.52477,0.42214
828.03498,0.64306
826.54519,0.71195
825.05540,0.78099
823.56561,0.95353
822.07582,0.58629
820.58604,0.04147
819.09625,0.31173
817.60646,0.58215
816.11667,0.59055
814.62688,0.35470
813.13709,0.49008
811.64730,0.35233
810.15752,0.31805
808.66773,0.28395
807.17794,0.65106
805.68815,0.70061
804.19836,0.49702
802.70857,0.49579
801.21879,0.49472
799.72900,0.41605
798.23921,0.48197
796.74942,0.60360
795.25963,0.55875
793.76984,0.51407
792.28006,0.41845
790.79027,0.64295
789.30048,0.47655
787.81069,0.62583
786.32090,0.34756
784.83111,0.06945
783.34132,0.04147
781.85154,0.08219
780.36175,0.10974
778.87196,0.14412
777.38217,0.17866
775.89238,0.29114
774.40259,0.47488
772.91281,0.60102
771.42302,0.59734
769.93323,0.59382
768.44344,0.53603
766.95365,0.42064
765.46386,0.35207
763.97407,0.04147
762.48429,0.16416
760.99450,0.28702
759.50471,0.18007
758.01492,0.21993
756.52513,0.45771
755.03534,0.44014
753.54556,0.42272
752.05577,0.24105
750.56598,0.28396
749.07619,0.68031
747.58640,0.69133
746.09661,0.70252
744.60683,0.39279
743.11704,0.29432
741.62725,0.64706
740.13746,0.59446
738.64767,0.54203
737.15788,0.51088
735.66809,0.14881
734.17831,0.30240
732.68852,0.37506
731.19873,0.44787
729.70894,0.42643
728.21915,0.36070
726.72936,0.26626
725.23958,0.35418
723.74979,0.27672
722.26000,0.19944
720.77021,0.17009
719.28042,0.39643
717.79063,0.44073
716.30084,0.38854
714.81106,0.33652
713.32127,0.32576
711.83148,0.31295
710.34169,0.57138
708.85190,0.52779
707.36211,0.48437
705.87233,0.66997
704.38254,0.30469
702.89275,0.15288
701.40296,0.34453
699.91317,0.53634
698.42338,0.63611
696.93360,0.17611
695.44381,0.24732
693.95402,0.34314
692.46423,0.43911
690.97444,0.52415
689.48465,0.63823
687.99486,0.71026
686.50508,0.61692
685.01529,0.52375
683.52550,0.63182
682.03571,0.66896
680.54592,0.77070
679.05613,0.70485
677.56635,0.63916
676.07656,0.73917
674.58677,0.86600
673.09698,0.73971
671.60719,0.58135
670.11740,0.42316
668.62761,0.26403
667.13783,0.37614
665.64804,0.30176
664.15825,0.22756
662.66846,0.44903
661.17867,0.15518
659.68888,0.04147
658.19910,0.20200
656.70931,0.36270
655.21952,0.42246
653.72973,0.61126
652.23994,0.49137
650.75015,0.51608
649.26037,0.54095
647.77058,0.33934
646.28079,0.53341
644.79100,0.60321
643.30121,0.58208
641.81142,0.56111
640.32163,0.14036
638.83185,0.24415
637.34206,0.04147
635.85227,0.10489
634.36248,0.16847
632.87269,0.15333
631.38290,0.37833
629.89312,0.44351
628.40333,0.32666
626.91354,0.20998
625.42375,0.29121
623.93396,0.41926
622.44417,0.35418
620.95438,0.28925
619.46460,0.12228
617.97481,0.31543
616.48502,0.44653
614.99523,0.32672
613.50544,0.20707
612.01565,0.38532
610.52587,0.39043
609.03608,0.34682
607.54629,0.35337
606.05650,0.36008
604.56671,0.53249
603.07692,0.35400
601.58714,0.43786
600.09735,0.52188
598.60756,0.53719
597.11777,0.26604
595.62798,0.38833
594.13819,0.27081
592.64840,0.15347
591.15862,0.10294
589.66883,0.04147
588.17904,0.50907
586.68925,0.52134
585.19946,0.53378
583.70967,0.59304
582.21989,0.35473
580.73010,0.24545
579.24031,0.13634
577.75052,0.09627
576.26073,0.43188
574.77094,0.72321
573.28115,0.55809
571.79137,0.39314
570.30158,0.52721
568.81179,0.78587
567.32200,0.74472
565.83221,0.70375
564.34242,0.56073
562.85264,0.70673
561.36285,0.70180
559.87306,0.76813
558.38327,0.83463
556.89348,0.95240
555.40369,1.25031
553.91391,1.27620
552.42412,1.30225
550.93433,1.38290
549.44454,1.40817
547.95475,0.93812
546.46496,0.91816
544.97517,0.89838
543.48539,1.02873
541.99560,1.01483
540.50581,1.22440
539.01602,1.43413
537.52623,1.27407
536.03644,1.20083
534.54666,1.27219
533.05687,1.36481
531.56708,1.45760
530.07729,1.63832
528.58750,1.35038
527.09771,1.16592
525.60792,0.98162
524.11814,1.32742
522.62835,1.32232
521.13856,1.22184
519.64877,0.97599
518.15898,0.73031
516.66919,0.88362
515.17941,0.79047
513.68962,0.82412
512.19983,0.85795
510.71004,1.10302
509.22025,1.41047
507.73046,1.22037
506.24068,1.08043
504.75089,0.94065
503.26110,0.91547
501.77131,0.87712
500.28152,0.97225
498.79173,1.06755
497.30194,0.66307
495.81216,0.68760
494.32237,0.90670
492.83258,1.12597
491.34279,1.21987
489.85300,0.90731
488.36321,0.61492
486.87343,0.57488
485.38364,0.53501
483.89385,0.41864
482.40406,0.14246
480.91427,0.36971
479.42448,0.59713
477.93469,0.15257
476.44491,0.04147
474.95512,0.10287
473.46533,0.16443
471.97554,0.09840
470.48575,0.11918
468.99596,0.14902
467.50618,0.15569
466.01639,0.16253
464.52660,0.14842
463.03681,0.48998
461.54702,0.49065
460.05723,0.49147
458.56745,0.30916
457.07766,0.52695
455.58787,0.41829
454.09808,0.30979
452.60829,0.57474
451.11850,0.43101
449.62871,0.43744
448.13893,0.44402
446.64914,0.78295
445.15935,0.98873
443.66956,1.05247
442.17977,0.91418
440.68998,0.77605
439.20020,0.60920
437.71041,0.66915
436.22062,0.73038
434.73083,0.79178
433.24104,1.14996
431.75125,1.23057
430.26146,1.25468
428.77168,1.27896
427.28189,1.03121
425.79210,1.18136
424.30231,1.15613
422.81252,1.13108
421.32273,0.85066
419.83295,0.73261
418.34316,0.88358
416.85337,1.03471
415.36358,1.11491
413.87379,0.99751
412.38400,0.93028
410.89422,0.86321
409.40443,1.11515
407.91464,0.77400
406.42485,0.83073
404.93506,0.74099
403.44527,0.65141
401.95548,1.00638
400.46570,1.07489
398.97591,0.97136
397.48612,0.86800
395.99633,0.23042
394.50654,0.26839
393.01675,0.29541
391.52697,0.32260
390.03718,0.57214
388.54739,0.94850
387.05760,1.00285
385.56781,1.05735
384.07802,0.75429
382.58824,0.35808
381.09845,0.30865
379.60866,0.25938
378.11887,0.63023
376.62908,0.79237
375.13929,0.61473
373.64950,0.43725
372.15972,0.34214
370.66993,0.37386
369.18014,0.35485
367.69035,0.33602
366.20056,0.77839
364.71077,0.83876
363.22099,0.84930
361.73120,0.86001
360.24141,0.52536
358.75162,0.33531
357.26183,0.46427
355.77204,0.59340
354.28225,0.81934
352.79247,0.94990
351.30268,0.81511
349.81289,0.68048
348.32310,0.53380
346.83331,0.86150
345.34352,0.71388
343.85374,0.56642
342.36395,0.22360
340.87416,0.42975
339.38437,0.38611
337.89458,0.34263
336.40479,0.24487
334.91501,0.25838
333.42522,0.14984
331.93543,0.04147
330.44564,0.09775
328.95585,0.51859
327.46606,0.59964
325.97627,0.68085
324.48649,1.02923
322.99670,0.64230
321.50691,0.37331
320.01712,0.10447
318.52733,0.23196
317.03754,0.16185
315.54776,0.11635
314.05797,0.07102
312.56818,0.59360
311.07839,0.60530
309.58860,0.54495
308.09881,0.48477
306.60902,0.04147
305.11924,0.32664
303.62945,0.36980
302.13966,0.07826
300.64987,0.23754
299.16008,0.04147
