1778.52000,0.06750
1777.03021,0.00309
1775.54042,0.19654
1774.05063,0.10109
1772.56085,0.17016
1771.07106,0.07479
1769.58127,0.16617
1768.09148,0.04421
1766.60169,0.00231
1765.11190,0.08937
1763.62212,0.07866
1762.13233,0.09467
1760.64254,0.26186
1759.15275,0.09125
1757.66296,0.10738
1756.17317,0.07910
1754.68339,0.04642
1753.19360,0.11157
1751.70381,0.11898
1750.21402,0.02418
1748.72423,0.14725
1747.23444,0.01252
1745.74465,0.00231
1744.25487,0.26739
1742.76508,0.16355
1741.27529,0.15310
1739.78550,0.14269
1738.29571,0.13232
1736.80592,0.15755
1735.31614,0.08503
1733.82635,0.19481
1732.33656,0.12237
1730.84677,0.16555
1729.35698,0.11097
1727.86719,0.05199
1726.37740,0.05973
1724.88762,0.04084
1723.39783,0.07533
1721.90804,0.17210
1720.41825,0.07776
1718.92846,0.17017
1717.43867,0.21816
1715.94889,0.12394
1714.45910,0.26092
1712.96931,0.00231
1711.47952,0.20321
1709.98973,0.22634
1708.49994,0.11170
1707.01016,0.11935
1705.52037,0.12704
1704.03058,0.11032
1702.54079,0.23589
1701.05100,0.29927
1699.56121,0.24267
1698.07142,0.20389
1696.58164,0.05401
1695.09185,0.27759
1693.60206,0.27450
1692.11227,0.20031
1690.62248,0.16618
1689.13269,0.20766
1687.64291,0.15138
1686.15312,0.28630
1684.66333,0.25233
1683.17354,0.20951
1681.68375,0.24230
1680.19396,0.09732
1678.70417,0.29468
1677.21439,0.18089
1675.72460,0.14272
1674.23481,0.10460
1672.74502,0.06651
1671.25523,0.07736
1669.76544,0.17716
1668.27566,0.18809
1666.78587,0.16351
1665.29608,0.15674
1663.80629,0.10111
1662.31650,0.23223
1660.82671,0.26560
1659.33693,0.27233
1657.84714,0.25688
1656.35735,0.13033
1654.86756,0.17275
1653.37777,0.07296
1651.88798,0.23993
1650.39819,0.05131
1648.90841,0.21391
1647.41862,0.12318
1645.92883,0.09471
1644.43904,0.06629
1642.94925,0.15794
1641.45946,0.16072
1639.96968,0.05684
1638.47989,0.13083
1636.99010,0.16040
1635.50031,0.15890
1634.01052,0.17966
1632.52073,0.16934
1631.03094,0.12351
1629.54116,0.10438
1628.05137,0.14309
1626.56158,0.15072
1625.07179,0.13172
1623.58200,0.06386
1622.09221,0.11162
1620.60243,0.24389
1619.11264,0.18504
1617.62285,0.10846
1616.13306,0.10748
1614.64327,0.15544
1613.15348,0.15455
1611.66370,0.09147
1610.17391,0.06843
1608.68412,0.10322
1607.19433,0.12916
1605.70454,0.21293
1604.21475,0.19673
1602.72496,0.18056
1601.23518,0.19333
1599.74539,0.22392
1598.25560,0.16120
1596.76581,0.30301
1595.27602,0.18258
1593.78623,0.11109
1592.29645,0.12855
1590.80666,0.06159
1589.31687,0.04802
1587.82708,0.32787
1586.33729,0.20325
1584.84750,0.13200
1583.35771,0.17193
1581.86793,0.25191
1580.37814,0.23414
1578.88835,0.23863
1577.39856,0.12314
1575.90877,0.10104
1574.41898,0.15899
1572.92920,0.13253
1571.43941,0.09722
1569.94962,0.07306
1568.45983,0.04894
1566.97004,0.08932
1565.48025,0.22309
1563.99047,0.18798
1562.50068,0.09957
1561.01089,0.00231
1559.52110,0.06715
1558.03131,0.30539
1556.54152,0.13915
1555.05173,0.15522
1553.56195,0.14020
1552.07216,0.32082
1550.58237,0.14141
1549.09258,0.17986
1547.60279,0.12055
1546.11300,0.17242
1544.62322,0.25989
1543.13343,0.20071
1541.64364,0.21714
1540.15385,0.15359
1538.66406,0.09008
1537.17427,0.20443
1535.68448,0.22991
1534.19470,0.24210
1532.70491,0.18765
1531.21512,0.06656
1529.72533,0.03886
1528.23554,0.00231
1526.74575,0.20052
1525.25597,0.15428
1523.76618,0.31701
1522.27639,0.21751
1520.78660,0.17583
1519.29681,0.14754
1517.80702,0.13261
1516.31724,0.17997
1514.82745,0.26293
1513.33766,0.17701
1511.84787,0.09113
1510.35808,0.20088
1508.86829,0.21288
1507.37850,0.22936
1505.88872,0.13031
1504.39893,0.06241
1502.90914,0.22571
1501.41935,0.00231
1499.92956,0.08458
1498.43977,0.15356
1496.94999,0.18258
1495.46020,0.26497
1493.97041,0.38298
1492.48062,0.41211
1490.99083,0.35683
1489.50104,0.47050
1488.01125,0.46198
1486.52147,0.45349
1485.03168,0.48727
1483.54189,0.51665
1482.05210,0.63943
1480.56231,0.65111
1479.07252,0.80063
1477.58274,0.71015
1476.09295,0.88199
1474.60316,0.87160
1473.11337,0.91460
1471.62358,1.01099
1470.13379,0.88960
1468.64401,0.99496
1467.15422,0.99812
1465.66443,0.82128
1464.17464,0.64448
1462.68485,0.62553
1461.19506,0.76666
1459.70527,0.65444
1458.21549,0.41335
1456.72570,0.52348
1455.23591,0.46917
1453.74612,0.54827
1452.25633,0.60517
1450.76654,0.38652
1449.27676,0.18568
1447.78697,0.28272
1446.29718,0.23755
1444.80739,0.23243
1443.31760,0.22734
1441.82781,0.10673
1440.33802,0.29287
1438.84824,0.24346
1437.35845,0.15408
1435.86866,0.22478
1434.37887,0.12659
1432.88908,0.21070
1431.39929,0.25484
1429.90951,0.12566
1428.41972,0.21434
1426.92993,0.34752
1425.44014,0.20067
1423.95035,0.19612
1422.46056,0.19162
1420.97078,0.22715
1419.48099,0.27607
1417.99120,0.39615
1416.50141,0.36069
1415.01162,0.26303
1413.52183,0.30766
1412.03204,0.30344
1410.54226,0.33037
1409.05247,0.32623
1407.56268,0.31768
1406.07289,0.30473
1404.58310,0.35405
1403.09331,0.40342
1401.60353,0.54618
1400.11374,0.35113
1398.62395,0.33394
1397.13416,0.49015
1395.64437,0.37080
1394.15458,0.54488
1392.66479,0.51896
1391.17501,0.45307
1389.68522,0.43612
1388.19543,0.45478
1386.70564,0.57349
1385.21585,0.69225
1383.72606,0.70214
1382.23628,0.60982
1380.74649,0.67758
1379.25670,0.51867
1377.76691,0.64874
1376.27712,0.65439
1374.78733,0.55783
1373.29755,0.49688
1371.80776,0.72047
1370.31797,0.79296
1368.82818,0.84771
1367.33839,0.90250
1365.84860,0.85064
1364.35881,0.94996
1362.86903,1.01377
1361.37924,1.14429
1359.88945,1.11927
1358.39966,1.00538
1356.90987,1.02933
1355.42008,0.87996
1353.93030,0.91734
1352.44051,1.03255
1350.95072,1.14780
1349.46093,0.88302
1347.97114,0.69384
1346.48135,0.67808
1344.99156,0.72459
1343.50178,0.61111
1342.01199,0.69326
1340.52220,0.69100
1339.03241,0.64876
1337.54262,0.53100
1336.05283,0.54886
1334.56305,0.56676
1333.07326,0.45801
1331.58347,0.46044
1330.09368,0.42290
1328.60389,0.51876
1327.11410,0.53019
1325.62432,0.35941
1324.13453,0.21090
1322.64474,0.44473
1321.15495,0.38076
1319.66516,0.30794
1318.17537,0.23516
1316.68558,0.24688
1315.19580,0.28976
1313.70601,0.17710
1312.21622,0.38009
1310.72643,0.38754
1309.23664,0.24388
1307.74685,0.02469
1306.25707,0.17450
1304.76728,0.15543
1303.27749,0.13641
1301.78770,0.18855
1300.29791,0.35186
1298.80812,0.37296
1297.31834,0.22519
1295.82855,0.20636
1294.33876,0.35650
1292.84897,0.31998
1291.35918,0.42130
1289.86939,0.40042
1288.37960,0.37958
1286.88982,0.35211
1285.40003,0.32913
1283.91024,0.26173
1282.42045,0.48777
1280.93066,0.47825
1279.44087,0.32207
1277.95109,0.37041
1276.46130,0.34768
1274.97151,0.40944
1273.48172,0.47125
1271.99193,0.34639
1270.50214,0.46162
1269.01235,0.42575
1267.52257,0.52328
1266.03278,0.52750
1264.54299,0.38506
1263.05320,0.37158
1261.56341,0.43816
1260.07362,0.50478
1258.58384,0.57588
1257.09405,0.62480
1255.60426,0.52262
1254.11447,0.34491
1252.62468,0.44729
1251.13489,0.38524
1249.64511,0.39880
1248.15532,0.43018
1246.66553,0.44604
1245.17574,0.46195
1243.68595,0.36898
1242.19616,0.35608
1240.70637,0.48546
1239.21659,0.26370
1237.72680,0.15756
1236.23701,0.28262
1234.74722,0.40328
1233.25743,0.30615
1231.76764,0.20907
1230.27786,0.23205
1228.78807,0.29063
1227.29828,0.18478
1225.80849,0.30568
1224.31870,0.24881
1222.82891,0.30311
1221.33912,0.29966
1219.84934,0.26736
1218.35955,0.23510
1216.86976,0.12509
1215.37997,0.02401
1213.89018,0.26081
1212.40039,0.27095
1210.91061,0.36114
1209.42082,0.41581
1207.93103,0.29493
1206.44124,0.17409
1204.95145,0.19332
1203.46166,0.09701
1201.97188,0.23190
1200.48209,0.00231
1198.99230,0.15401
1197.50251,0.01680
1196.01272,0.04411
1194.52293,0.05591
1193.03314,0.06774
1191.54336,0.13518
1190.05357,0.38493
1188.56378,0.32354
1187.07399,0.09327
1185.58420,0.15198
1184.09441,0.05959
1182.60463,0.11172
1181.11484,0.16389
1179.62505,0.19165
1178.13526,0.13055
1176.64547,0.28286
1175.15568,0.15071
1173.66589,0.27643
1172.17611,0.23327
1170.68632,0.23460
1169.19653,0.23598
1167.70674,0.24629
1166.21695,0.35888
1164.72716,0.32925
1163.23738,0.13075
1161.74759,0.29236
1160.25780,0.29398
1158.76801,0.32009
1157.27822,0.34624
1155.78843,0.61470
1154.29865,0.57648
1152.80886,0.54718
1151.31907,0.41124
1149.82928,0.39981
1148.33949,0.66403
1146.84970,0.60601
1145.35991,0.54802
1143.87013,0.54120
1142.38034,0.50330
1140.89055,0.46989
1139.40076,0.69434
1137.91097,0.62545
1136.42118,0.69440
1134.93140,0.69449
1133.44161,0.69462
1131.95182,0.90150
1130.46203,0.76169
1128.97224,0.90197
1127.48245,0.84225
1125.99266,0.83592
1124.50288,0.82518
1123.01309,0.91895
1121.52330,1.01276
1120.03351,0.86434
1118.54372,0.99157
1117.05393,0.95881
1115.56415,0.68604
1114.07436,0.68448
1112.58457,0.80076
1111.09478,0.91708
1109.60499,0.93787
1108.11520,0.88757
1106.62542,0.93512
1105.13563,0.97825
1103.64584,0.66580
1102.15605,0.83349
1100.66626,0.81007
1099.17647,0.78669
1097.68668,0.71445
1096.19690,0.58002
1094.70711,0.69457
1093.21732,1.05365
1091.72753,0.88378
1090.23774,0.95177
1088.74795,1.01981
1087.25817,1.14345
1085.76838,1.16934
1084.27859,1.39975
1082.78880,1.11010
1081.29901,1.05165
1079.80922,1.13104
1078.31943,1.09267
1076.82965,1.05434
1075.33986,1.35613
1073.85007,1.10673
1072.36028,1.40859
1070.87049,1.25707
1069.38070,1.12782
1067.89092,1.11419
1066.40113,1.10060
1064.91134,1.18040
1063.42155,1.08687
1061.93176,1.32679
1060.44197,1.03330
1058.95219,1.09549
1057.46240,1.14438
1055.97261,1.19330
1054.48282,1.17559
1052.99303,0.89565
1051.50324,0.69576
1050.01345,0.80709
1048.52367,0.83844
1047.03388,0.86761
1045.54409,0.89682
1044.05430,0.56378
1042.56451,0.54639
1041.07472,0.44015
1039.58494,0.53397
1038.09515,0.47671
1036.60536,0.47727
1035.11557,0.47787
1033.62578,0.40294
1032.13599,0.27026
1030.64620,0.41768
1029.15642,0.51180
1027.66663,0.47704
1026.17684,0.44233
1024.68705,0.45210
1023.19726,0.78198
1021.70747,0.83630
1020.21769,0.91288
1018.72790,1.22510
1017.23811,1.29065
1015.74832,1.35623
1014.25853,1.71303
1012.76874,1.89650
1011.27896,2.00000
1009.78917,1.95240
1008.29938,1.79815
1006.80959,1.80175
1005.31980,1.80539
1003.83001,1.88686
1002.34022,1.80834
1000.85044,1.84100
999.36065,1.66477
997.87086,1.65528
996.38107,1.64583
994.89128,1.42526
993.40149,1.57815
991.91171,1.46435
990.42192,1.59065
988.93213,1.38803
987.44234,1.23435
985.95255,1.08071
984.46276,1.20717
982.97297,1.15141
981.48319,1.30018
979.99340,1.01778
978.50361,1.03327
977.01382,1.04880
975.52403,0.80210
974.03424,0.75547
972.54446,0.81558
971.05467,0.57344
969.56488,0.52694
968.07509,0.51604
966.58530,0.50518
965.09551,0.57883
963.60573,0.51026
962.11594,0.30393
960.62615,0.28435
959.13636,0.22035
957.64657,0.15639
956.15678,0.31030
954.66699,0.25976
953.17721,0.12924
951.68742,0.20770
950.19763,0.24619
948.70784,0.28472
947.21805,0.38108
945.72826,0.29522
944.23848,0.28942
942.74869,0.25254
941.25890,0.45576
939.76911,0.50120
938.27932,0.54668
936.78953,0.50552
935.29974,0.47330
933.80996,0.50334
932.32017,0.57789
930.83038,0.67025
929.34059,0.76266
927.85080,0.97512
926.36101,0.85424
924.87123,0.93343
923.38144,1.06156
921.89165,0.96302
920.40186,0.86452
918.91207,1.08168
917.42228,0.90324
915.93250,0.75597
914.44271,0.79544
912.95292,0.77494
911.46313,0.75447
909.97334,0.76739
908.48355,0.70923
906.99376,0.61999
905.50398,0.31297
904.01419,0.34160
902.52440,0.37029
901.03461,0.37456
899.54482,0.40555
898.05503,0.40101
896.56525,0.52988
895.07546,0.65878
893.58567,0.78773
892.09588,0.72112
890.60609,0.69456
889.11630,0.68583
887.62651,0.83272
886.13673,0.86630
884.64694,0.89991
883.15715,0.95357
881.66736,0.80279
880.17757,1.03879
878.68778,1.00812
877.19800,0.97748
875.70821,1.08469
874.21842,1.27640
872.72863,1.30367
871.23884,1.35766
869.74905,1.35613
868.25927,1.35463
866.76948,1.47097
865.27969,1.49845
863.78990,1.71712
862.30011,1.68245
860.81032,1.58558
859.32053,1.48876
857.83075,1.48532
856.34096,1.61529
854.85117,1.32299
853.36138,1.34635
851.87159,1.34753
850.38180,1.34874
848.89202,1.28332
847.40223,1.22682
845.91244,1.25039
844.42265,1.06506
842.93286,0.87978
841.44307,0.51228
839.95329,0.69159
838.46350,0.66202
836.97371,0.84141
835.48392,0.70523
833.99413,0.56909
832.50434,0.47744
831.01455,0.51475
829.52477,0.43208
828.03498,0.53615
826.54519,0.59803
825.05540,0.65995
823.56561,0.50631
822.07582,0.24603
820.58604,0.25695
819.09625,0.29459
817.60646,0.33226
816.11667,0.24995
814.62688,0.17213
813.13709,0.28550
811.64730,0.23443
810.15752,0.28565
808.66773,0.33691
807.17794,0.20150
805.68815,0.39953
804.19836,0.08640
802.70857,0.15782
801.21879,0.22928
799.72900,0.10297
798.23921,0.14118
796.74942,0.10385
795.25963,0.16659
793.76984,0.22937
792.28006,0.21440
790.79027,0.13278
789.30048,0.00231
787.81069,0.20447
786.32090,0.24220
784.83111,0.27997
783.34132,0.21998
781.85154,0.00000
780.36175,0.10806
778.87196,0.05836
777.38217,0.00870
775.89238,0.15690
774.40259,0.26068
772.91281,0.13335
771.42302,0.14164
769.93323,0.14997
768.44344,0.09833
766.95365,0.21566
765.46386,0.23967
763.97407,0.19260
762.48429,0.21003
760.99450,0.22749
759.50471,0.09609
758.01492,0.19143
756.52513,0.00231
755.03534,0.05682
753.54556,0.11137
752.05577,0.06372
750.56598,0.08724
749.07619,0.17748
747.58640,0.11661
746.09661,0.05579
744.60683,0.07502
743.11704,0.24988
741.62725,0.14473
740.13746,0.15297
738.64767,0.16126
737.15788,0.28738
735.66809,0.05793
734.17831,0.26859
732.68852,0.27927
731.19873,0.28998
729.70894,0.21627
728.21915,0.24484
726.72936,0.17121
725.23958,0.27544
723.74979,0.19745
722.26000,0.11949
720.77021,0.14383
719.28042,0.28822
717.79063,0.35709
716.30084,0.38377
714.81106,0.41049
713.32127,0.19053
711.83148,0.18843
710.34169,0.19083
708.85190,0.27994
707.36211,0.36910
705.87233,0.33605
704.38254,0.19191
702.89275,0.34564
701.40296,0.37940
699.91317,0.41319
698.42338,0.32256
696.93360,0.08082
695.44381,0.26588
693.95402,0.33762
692.46423,0.40941
690.97444,0.31453
689.48465,0.23748
687.99486,0.43607
686.50508,0.44579
685.01529,0.45554
683.52550,0.45867
682.03571,0.48850
680.54592,0.48282
679.05613,0.45273
677.56635,0.42268
676.07656,0.44379
674.58677,0.46938
673.09698,0.35277
671.60719,0.24287
670.11740,0.13301
668.62761,0.06986
667.13783,0.00231
665.64804,0.13750
664.15825,0.27273
662.66846,0.38355
661.17867,0.44107
659.68888,0.14301
658.19910,0.12504
656.70931,0.10711
655.21952,0.18702
653.72973,0.28475
652.23994,0.19582
650.75015,0.22029
649.26037,0.24479
647.77058,0.09819
646.28079,0.06721
644.79100,0.40079
643.30121,0.34544
641.81142,0.29014
640.32163,0.27266
638.83185,0.24633
637.34206,0.10891
635.85227,0.13156
634.36248,0.15425
632.87269,0.16365
631.38290,0.26199
629.89312,0.32926
628.40333,0.26987
626.91354,0.21053
625.42375,0.00231
623.93396,0.10178
622.44417,0.06571
620.95438,0.02968
619.46460,0.15150
617.97481,0.22446
616.48502,0.40860
614.99523,0.22826
613.50544,0.04796
612.01565,0.16109
610.52587,0.20759
609.03608,0.33858
607.54629,0.29625
606.05650,0.25396
604.56671,0.31396
603.07692,0.27175
601.58714,0.24292
600.09735,0.21413
598.60756,0.20316
597.11777,0.27225
595.62798,0.51919
594.13819,0.44833
592.64840,0.37751
591.15862,0.08225
589.66883,0.32046
588.17904,0.34090
586.68925,0.33470
585.19946,0.32855
583.70967,0.35355
582.21989,0.50750
580.73010,0.43479
579.24031,0.36212
577.75052,0.24948
576.26073,0.30580
574.77094,0.46885
573.28115,0.50970
571.79137,0.55059
570.30158,0.61596
568.81179,0.53469
567.32200,0.56903
565.83221,0.60341
564.34242,0.77120
562.85264,0.93457
561.36285,0.73348
559.87306,0.70357
558.38327,0.67369
556.89348,1.07284
555.40369,1.16530
553.91391,1.24668
552.42412,1.32810
550.93433,1.31844
549.44454,1.41995
547.95475,1.31257
546.46496,1.37416
544.97517,1.43579
543.48539,1.36854
541.99560,1.36356
540.50581,1.45865
539.01602,1.55378
537.52623,1.54448
536.03644,1.09070
534.54666,1.28152
533.05687,1.31903
531.56708,1.35657
530.07729,1.23635
528.58750,1.12061
527.09771,1.11827
525.60792,1.11596
524.11814,1.13371
522.62835,1.04925
521.13856,0.97372
519.64877,0.91158
518.15898,0.84946
516.66919,0.78740
515.17941,0.85873
513.68962,0.82563
512.19983,0.79259
510.71004,0.69067
509.22025,0.95776
507.73046,1.05597
506.24068,1.10532
504.75089,1.15471
503.26110,1.04856
501.77131,0.73796
500.28152,0.93639
498.79173,1.13486
497.30194,0.64658
495.81216,0.74067
494.32237,0.65698
492.83258,0.57334
491.34279,0.69867
489.85300,0.84182
488.36321,0.79831
486.87343,0.69927
485.38364,0.60028
483.89385,0.57022
482.40406,0.53132
480.91427,0.42355
479.42448,0.31583
477.93469,0.28594
476.44491,0.16274
474.95512,0.14627
473.46533,0.12983
471.97554,0.00231
470.48575,0.23462
468.99596,0.03133
467.50618,0.03033
466.01639,0.02939
464.52660,0.11516
463.03681,0.37434
461.54702,0.37574
460.05723,0.37718
458.56745,0.44978
457.07766,0.50019
455.58787,0.51731
454.09808,0.53447
452.60829,0.58057
451.11850,0.73339
449.62871,0.70177
448.13893,0.67019
446.64914,0.96094
445.15935,0.97168
443.66956,1.05802
442.17977,1.09107
440.68998,1.12415
439.20020,0.97502
437.71041,0.95040
436.22062,0.98360
434.73083,1.01685
433.24104,1.12126
431.75125,1.05235
430.26146,1.03460
428.77168,1.01689
427.28189,1.06812
425.79210,1.15051
424.30231,1.20627
422.81252,1.26207
421.32273,1.08676
419.83295,1.05373
418.34316,1.08520
416.85337,1.11672
415.36358,1.21718
413.87379,1.54439
412.38400,1.45378
410.89422,1.36321
409.40443,1.27713
407.91464,1.03550
406.42485,0.90504
404.93506,0.71462
403.44527,0.52424
401.95548,0.69174
400.46570,0.74371
398.97591,0.76238
397.48612,0.78109
395.99633,0.53089
394.50654,0.59191
393.01675,0.65520
391.52697,0.71852
390.03718,0.53517
388.54739,0.72972
387.05760,0.75538
385.56781,0.78108
384.07802,0.49566
382.58824,0.43698
381.09845,0.45169
379.60866,0.46644
378.11887,0.42567
376.62908,0.48274
375.13929,0.45538
373.64950,0.42807
372.15972,0.40080
370.66993,0.50692
369.18014,0.40638
367.69035,0.30588
366.20056,0.53660
364.71077,0.46953
363.22099,0.46695
361.73120,0.46441
360.24141,0.22409
358.75162,0.13050
357.26183,0.15698
355.77204,0.18350
354.28225,0.46344
352.79247,0.32112
351.30268,0.27664
349.81289,0.23219
348.32310,0.26336
346.83331,0.41460
345.34352,0.31693
343.85374,0.21931
342.36395,0.45957
340.87416,0.12643
339.38437,0.13117
337.89458,0.13595
336.40479,0.16300
334.91501,0.12341
333.42522,0.11053
331.93543,0.09770
330.44564,0.09379
328.95585,0.20106
327.46606,0.10166
325.97627,0.00231
324.48649,0.23209
322.99670,0.27966
321.50691,0.19391
320.01712,0.10820
318.52733,0.26258
317.03754,0.31031
315.54776,0.30029
314.05797,0.29031
312.56818,0.26704
311.07839,0.28382
309.58860,0.17838
308.09881,0.07300
306.60902,0.06767
305.11924,0.02237
303.62945,0.10381
302.13966,0.18529
300.64987,0.00231
299.16008,0.00231
