1778.52000,0.00000
1777.03021,0.04086
1775.54042,0.05922
1774.05063,0.04535
1772.56085,0.09689
1771.07106,0.11621
1769.58127,0.05000
1768.09148,0.02548
1766.60169,0.03330
1765.11190,0.01667
1763.62212,0.02928
1762.13233,0.08395
1760.64254,0.09123
1759.15275,0.15457
1757.66296,0.16936
1756.17317,0.10135
1754.68339,0.01667
1753.19360,0.10420
1751.70381,0.08831
1750.21402,0.12383
1748.72423,0.03610
1747.23444,0.08030
1745.74465,0.09693
1744.25487,0.08445
1742.76508,0.11910
1741.27529,0.11023
1739.78550,0.12166
1738.29571,0.10280
1736.80592,0.09956
1735.31614,0.10921
1733.82635,0.11581
1732.33656,0.01667
1730.84677,0.03054
1729.35698,0.10592
1727.86719,0.02615
1726.37740,0.03436
1724.88762,0.06518
1723.39783,0.08128
1721.90804,0.03404
1720.41825,0.10705
1718.92846,0.11360
1717.43867,0.04436
1715.94889,0.08409
1714.45910,0.10521
1712.96931,0.14429
1711.47952,0.12079
1709.98973,0.12575
1708.49994,0.12182
1707.01016,0.11601
1705.52037,0.11025
1704.03058,0.14968
1702.54079,0.07052
1701.05100,0.03304
1699.56121,0.05358
1698.07142,0.08546
1696.58164,0.08706
1695.09185,0.10078
1693.60206,0.14800
1692.11227,0.17856
1690.62248,0.29358
1689.13269,0.20679
1687.64291,0.23908
1686.15312,0.19013
1684.66333,0.21826
1683.17354,0.22155
1681.68375,0.24396
1680.19396,0.32789
1678.70417,0.15087
1677.21439,0.05482
1675.72460,0.04712
1674.23481,0.07683
1672.74502,0.15794
1671.25523,0.24611
1669.76544,0.24370
1668.27566,0.22813
1666.78587,0.24918
1665.29608,0.19911
1663.80629,0.16466
1662.31650,0.15749
1660.82671,0.25151
1659.33693,0.23046
1657.84714,0.18924
1656.35735,0.14146
1654.86756,0.11553
1653.37777,0.11766
1651.88798,0.15213
1650.39819,0.06336
1648.90841,0.16758
1647.41862,0.10771
1645.92883,0.10333
1644.43904,0.09900
1642.94925,0.20073
1641.45946,0.30641
1639.96968,0.37909
1638.47989,0.32774
1636.99010,0.27566
1635.50031,0.23143
1634.01052,0.20982
1632.52073,0.20733
1631.03094,0.16638
1629.54116,0.06715
1628.05137,0.05355
1626.56158,0.01667
1625.07179,0.05156
1623.58200,0.18064
1622.09221,0.29694
1620.60243,0.24760
1619.11264,0.26211
1617.62285,0.15842
1616.13306,0.27029
1614.64327,0.22429
1613.15348,0.14101
1611.66370,0.13442
1610.17391,0.19868
1608.68412,0.21982
1607.19433,0.29314
1605.70454,0.28406
1604.21475,0.26998
1602.72496,0.25596
1601.23518,0.27467
1599.74539,0.29538
1598.25560,0.32860
1596.76581,0.28409
1595.27602,0.25247
1593.78623,0.15050
1592.29645,0.05520
1590.80666,0.09689
1589.31687,0.05344
1587.82708,0.17265
1586.33729,0.20789
1584.84750,0.22725
1583.35771,0.25133
1581.86793,0.18329
1580.37814,0.22966
1578.88835,0.18740
1577.39856,0.20549
1575.90877,0.21664
1574.41898,0.17962
1572.92920,0.06953
1571.43941,0.01667
1569.94962,0.03473
1568.45983,0.05284
1566.97004,0.06810
1565.48025,0.09859
1563.99047,0.19215
1562.50068,0.12550
1561.01089,0.08615
1559.52110,0.11804
1558.03131,0.15776
1556.54152,0.18354
1555.05173,0.02539
1553.56195,0.01667
1552.07216,0.06893
1550.58237,0.16831
1549.09258,0.21446
1547.60279,0.20271
1546.11300,0.08561
1544.62322,0.07942
1543.13343,0.19271
1541.64364,0.15591
1540.15385,0.17499
1538.66406,0.19413
1537.17427,0.20340
1535.68448,0.21235
1534.19470,0.20579
1532.70491,0.12501
1531.21512,0.14113
1529.72533,0.16626
1528.23554,0.16149
1526.74575,0.14590
1525.25597,0.14592
1523.76618,0.21679
1522.27639,0.21577
1520.78660,0.09343
1519.29681,0.01667
1517.80702,0.11214
1516.31724,0.17771
1514.82745,0.21845
1513.33766,0.25536
1511.84787,0.29232
1510.35808,0.30640
1508.86829,0.25557
1507.37850,0.18924
1505.88872,0.12570
1504.39893,0.09372
1502.90914,0.01667
1501.41935,0.03634
1499.92956,0.21593
1498.43977,0.22754
1496.94999,0.26760
1495.46020,0.34235
1493.97041,0.23822
1492.48062,0.24384
1490.99083,0.29581
1489.50104,0.48865
1488.01125,0.49426
1486.52147,0.49992
1485.03168,0.49961
1483.54189,0.49197
1482.05210,0.54040
1480.56231,0.56906
1479.07252,0.67595
1477.58274,0.79846
1476.09295,0.78178
1474.60316,0.88496
1473.11337,0.95008
1471.62358,0.96625
1470.13379,0.91091
1468.64401,0.88013
1467.15422,0.84396
1465.66443,0.80785
1464.17464,0.77180
1462.68485,0.69146
1461.19506,0.61819
1459.70527,0.45239
1458.21549,0.40646
1456.72570,0.44928
1455.23591,0.45714
1453.74612,0.45184
1452.25633,0.45516
1450.76654,0.36557
1449.27676,0.27020
1447.78697,0.30170
1446.29718,0.34142
1444.80739,0.34698
1443.31760,0.35259
1441.82781,0.20851
1440.33802,0.17689
1438.84824,0.14612
1437.35845,0.07495
1435.86866,0.01667
1434.37887,0.04406
1432.88908,0.18858
1431.39929,0.19002
1429.90951,0.18918
1428.41972,0.12111
1426.92993,0.15035
1425.44014,0.11040
1423.95035,0.11505
1422.46056,0.11976
1420.97078,0.14611
1419.48099,0.27405
1417.99120,0.28146
1416.50141,0.20764
1415.01162,0.19144
1413.52183,0.27877
1412.03204,0.19073
1410.54226,0.19727
1409.05247,0.10467
1407.56268,0.09966
1406.07289,0.23046
1404.58310,0.24112
1403.09331,0.25184
1401.60353,0.28480
1400.11374,0.28319
1398.62395,0.32637
1397.13416,0.40229
1395.64437,0.36235
1394.15458,0.45044
1392.66479,0.46702
1391.17501,0.44592
1389.68522,0.36498
1388.19543,0.36929
1386.70564,0.41703
1385.21585,0.46482
1383.72606,0.36934
1382.23628,0.38944
1380.74649,0.41932
1379.25670,0.42942
1377.76691,0.39369
1376.27712,0.38951
1374.78733,0.48654
1373.29755,0.43542
1371.80776,0.63991
1370.31797,0.78379
1368.82818,0.78302
1367.33839,0.78232
1365.84860,0.71437
1364.35881,0.75735
1362.86903,0.77782
1361.37924,0.80069
1359.88945,0.80455
1358.39966,0.74469
1356.90987,0.80351
1355.42008,0.85501
1353.93030,0.86183
1352.44051,0.77613
1350.95072,0.69050
1349.46093,0.60142
1347.97114,0.54313
1346.48135,0.51095
1344.99156,0.45784
1343.50178,0.46157
1342.01199,0.36928
1340.52220,0.50305
1339.03241,0.52251
1337.54262,0.38178
1336.05283,0.38483
1334.56305,0.38794
1333.07326,0.47494
1331.58347,0.40990
1330.09368,0.31575
1328.60389,0.26172
1327.11410,0.28399
1325.62432,0.33121
1324.13453,0.35632
1322.64474,0.21462
1321.15495,0.12004
1319.66516,0.08659
1318.17537,0.05320
1316.68558,0.10272
1315.19580,0.19625
1313.70601,0.21010
1312.21622,0.17383
1310.72643,0.05399
1309.23664,0.01667
1307.74685,0.07319
1306.25707,0.15076
1304.76728,0.14243
1303.27749,0.13416
1301.78770,0.11700
1300.29791,0.09990
1298.80812,0.12448
1297.31834,0.03243
1295.82855,0.11119
1294.33876,0.13556
1292.84897,0.21133
1291.35918,0.30116
1289.86939,0.28486
1288.37960,0.26862
1286.88982,0.34851
1285.40003,0.37984
1283.91024,0.38167
1282.42045,0.28242
1280.93066,0.26220
1279.44087,0.28404
1277.95109,0.35611
1276.46130,0.36096
1274.97151,0.35477
1273.48172,0.34865
1271.99193,0.27898
1270.50214,0.36186
1269.01235,0.33899
1267.52257,0.39436
1266.03278,0.46185
1264.54299,0.47027
1263.05320,0.43869
1261.56341,0.41378
1260.07362,0.38893
1258.58384,0.41820
1257.09405,0.34640
1255.60426,0.35129
1254.11447,0.37840
1252.62468,0.35851
1251.13489,0.31145
1249.64511,0.37142
1248.15532,0.30541
1246.66553,0.34235
1245.17574,0.37935
1243.68595,0.32869
1242.19616,0.23997
1240.70637,0.28979
1239.21659,0.22880
1237.72680,0.17488
1236.23701,0.16302
1234.74722,0.17846
1233.25743,0.15349
1231.76764,0.12859
1230.27786,0.13836
1228.78807,0.22482
1227.29828,0.26933
1225.80849,0.20926
1224.31870,0.19165
1222.82891,0.14065
1221.33912,0.05625
1219.84934,0.10669
1218.35955,0.15719
1216.86976,0.16632
1215.37997,0.28793
1213.89018,0.21083
1212.40039,0.18513
1210.91061,0.26218
1209.42082,0.17786
1207.93103,0.12842
1206.44124,0.07903
1204.95145,0.01667
1203.46166,0.06521
1201.97188,0.02434
1200.48209,0.06132
1198.99230,0.08864
1197.50251,0.09346
1196.01272,0.02443
1194.52293,0.05621
1193.03314,0.08804
1191.54336,0.17711
1190.05357,0.19544
1188.56378,0.02907
1187.07399,0.06192
1185.58420,0.06720
1184.09441,0.04999
1182.60463,0.03614
1181.11484,0.02235
1179.62505,0.06210
1178.13526,0.14547
1176.64547,0.21568
1175.15568,0.24199
1173.66589,0.34382
1172.17611,0.22867
1170.68632,0.19020
1169.19653,0.15178
1167.70674,0.22857
1166.21695,0.20972
1164.72716,0.19093
1163.23738,0.15859
1161.74759,0.05668
1160.25780,0.01667
1158.76801,0.05586
1157.27822,0.09511
1155.78843,0.28748
1154.29865,0.39628
1152.80886,0.36705
1151.31907,0.40168
1149.82928,0.39279
1148.33949,0.39486
1146.84970,0.37345
1145.35991,0.35210
1143.87013,0.32789
1142.38034,0.43054
1140.89055,0.40723
1139.40076,0.50572
1137.91097,0.65095
1136.42118,0.64260
1134.93140,0.65083
1133.44161,0.65912
1131.95182,0.66494
1130.46203,0.71867
1128.97224,0.77362
1127.48245,0.83913
1125.99266,0.90275
1124.50288,0.93960
1123.01309,0.97572
1121.52330,1.01191
1120.03351,0.94585
1118.54372,0.79194
1117.05393,0.69488
1115.56415,0.82465
1114.07436,0.84440
1112.58457,0.83951
1111.09478,0.83468
1109.60499,0.86861
1108.11520,0.96600
1106.62542,0.94676
1105.13563,0.86495
1103.64584,0.75208
1102.15605,0.64899
1100.66626,0.68385
1099.17647,0.71878
1097.68668,0.80491
1096.19690,0.73045
1094.70711,0.66422
1093.21732,0.72836
1091.72753,0.82368
1090.23774,0.85487
1088.74795,0.88612
1087.25817,1.10258
1085.76838,1.14095
1084.27859,1.09652
1082.78880,1.11478
1081.29901,1.08253
1079.80922,1.11374
1078.31943,1.11156
1076.82965,1.10944
1075.33986,1.07859
1073.85007,1.20378
1072.36028,1.29480
1070.87049,1.14160
1069.38070,1.06353
1067.89092,1.09930
1066.40113,1.13512
1064.91134,1.22138
1063.42155,1.11671
1061.93176,1.02337
1060.44197,0.97638
1058.95219,1.07260
1057.46240,1.08874
1055.97261,1.10495
1054.48282,1.16594
1052.99303,0.98466
1051.50324,0.82716
1050.01345,0.78448
1048.52367,0.78697
1047.03388,0.74751
1045.54409,0.70811
1044.05430,0.61509
1042.56451,0.48245
1041.07472,0.49496
1039.58494,0.59583
1038.09515,0.52249
1036.60536,0.56435
1035.11557,0.60627
1033.62578,0.74627
1032.13599,0.50629
1030.64620,0.32706
1029.15642,0.31086
1027.66663,0.34316
1026.17684,0.37551
1024.68705,0.63100
1023.19726,0.90949
1021.70747,0.88698
1020.21769,1.14965
1018.72790,1.26689
1017.23811,1.32293
1015.74832,1.37903
1014.25853,1.38404
1012.76874,1.58399
1011.27896,1.76571
1009.78917,2.00000
1008.29938,1.92939
1006.80959,1.82286
1005.31980,1.71639
1003.83001,1.73037
1002.34022,1.62732
1000.85044,1.73321
999.36065,1.60694
997.87086,1.54900
996.38107,1.49111
994.89128,1.34596
993.40149,1.45798
991.91171,1.40785
990.42192,1.28543
988.93213,1.21286
987.44234,1.14269
985.95255,1.07257
984.46276,1.22034
982.97297,1.23591
981.48319,1.23560
979.99340,1.00973
978.50361,0.96266
977.01382,0.91565
975.52403,0.93813
974.03424,0.86382
972.54446,0.79112
971.05467,0.65351
969.56488,0.54670
968.07509,0.54361
966.58530,0.54057
965.09551,0.54868
963.60573,0.50939
962.11594,0.41610
960.62615,0.29213
959.13636,0.29250
957.64657,0.29293
956.15678,0.29594
954.66699,0.32586
953.17721,0.42818
951.68742,0.50683
950.19763,0.46029
948.70784,0.41381
947.21805,0.32772
945.72826,0.34554
944.23848,0.43460
942.74869,0.44281
941.25890,0.55416
939.76911,0.57629
938.27932,0.59849
936.78953,0.43306
935.29974,0.55087
933.80996,0.72747
932.32017,1.02160
930.83038,0.97524
929.34059,0.92894
927.85080,0.85722
926.36101,0.89214
924.87123,0.78669
923.38144,0.82367
921.89165,0.92353
920.40186,1.02345
918.91207,0.96064
917.42228,0.95040
915.93250,0.81691
914.44271,0.83129
912.95292,0.84340
911.46313,0.85556
909.97334,0.71141
908.48355,0.69375
906.99376,0.51782
905.50398,0.38747
904.01419,0.40284
902.52440,0.41828
901.03461,0.40246
899.54482,0.47733
898.05503,0.39161
896.56525,0.33707
895.07546,0.41464
893.58567,0.49228
892.09588,0.67713
890.60609,0.63916
889.11630,0.72145
887.62651,0.76606
886.13673,0.80431
884.64694,0.84262
883.15715,0.86329
881.66736,0.86029
880.17757,0.74843
878.68778,0.77764
877.19800,0.80691
875.70821,0.98735
874.21842,1.23671
872.72863,1.27179
871.23884,1.26337
869.74905,1.34933
868.25927,1.43535
866.76948,1.42205
865.27969,1.43875
863.78990,1.42479
862.30011,1.51902
860.81032,1.47269
859.32053,1.42642
857.83075,1.44770
856.34096,1.46359
854.85117,1.37412
853.36138,1.10696
851.87159,1.08802
850.38180,1.06913
848.89202,1.12577
847.40223,1.08833
845.91244,0.93971
844.42265,0.84346
842.93286,0.74727
841.44307,0.57003
839.95329,0.73555
838.46350,0.62728
836.97371,0.55486
835.48392,0.54239
833.99413,0.52999
832.50434,0.54993
831.01455,0.50108
829.52477,0.44256
828.03498,0.51403
826.54519,0.50425
825.05540,0.49453
823.56561,0.47087
822.07582,0.46049
820.58604,0.42061
819.09625,0.36912
817.60646,0.31768
816.11667,0.23830
814.62688,0.09402
813.13709,0.06688
811.64730,0.07597
810.15752,0.16058
808.66773,0.24525
807.17794,0.28719
805.68815,0.19889
804.19836,0.17171
802.70857,0.26245
801.21879,0.35325
799.72900,0.28773
798.23921,0.22889
796.74942,0.19656
795.25963,0.18977
793.76984,0.18303
792.28006,0.19755
790.79027,0.27243
789.30048,0.10891
787.81069,0.31810
786.32090,0.24009
784.83111,0.16213
783.34132,0.10271
781.85154,0.10091
780.36175,0.12330
778.87196,0.16927
777.38217,0.21530
775.89238,0.25031
774.40259,0.10994
772.91281,0.19641
771.42302,0.22770
769.93323,0.25905
768.44344,0.17454
766.95365,0.07337
765.46386,0.09322
763.97407,0.20338
762.48429,0.21343
760.99450,0.22355
759.50471,0.38172
758.01492,0.30619
756.52513,0.29644
755.03534,0.21285
753.54556,0.12932
752.05577,0.01667
750.56598,0.12835
749.07619,0.30932
747.58640,0.28613
746.09661,0.26301
744.60683,0.33719
743.11704,0.24338
741.62725,0.24299
740.13746,0.27787
738.64767,0.31280
737.15788,0.16555
735.66809,0.15412
734.17831,0.02955
732.68852,0.15437
731.19873,0.27926
729.70894,0.41587
728.21915,0.36350
726.72936,0.27734
725.23958,0.17724
723.74979,0.10773
722.26000,0.03828
720.77021,0.13402
719.28042,0.38579
717.79063,0.47814
716.30084,0.42681
714.81106,0.37555
713.32127,0.29070
711.83148,0.26348
710.34169,0.25265
708.85190,0.29595
707.36211,0.33931
705.87233,0.29521
704.38254,0.37097
702.89275,0.17334
701.40296,0.15294
699.91317,0.13261
698.42338,0.11175
696.93360,0.14307
695.44381,0.27947
693.95402,0.33483
692.46423,0.39025
690.97444,0.30123
689.48465,0.41491
687.99486,0.38046
686.50508,0.40753
685.01529,0.43465
683.52550,0.52329
682.03571,0.37821
680.54592,0.34288
679.05613,0.37744
677.56635,0.41205
676.07656,0.32089
674.58677,0.27918
673.09698,0.38418
671.60719,0.37138
670.11740,0.35863
668.62761,0.32650
667.13783,0.26408
665.64804,0.19686
664.15825,0.12970
662.66846,0.12580
661.17867,0.20443
659.68888,0.25900
658.19910,0.23564
656.70931,0.21234
655.21952,0.25853
653.72973,0.13868
652.23994,0.08735
650.75015,0.13566
649.26037,0.18403
647.77058,0.05430
646.28079,0.13663
644.79100,0.19684
643.30121,0.24428
641.81142,0.29177
640.32163,0.33738
638.83185,0.19867
637.34206,0.15182
635.85227,0.20499
634.36248,0.25823
632.87269,0.01667
631.38290,0.10494
629.89312,0.14853
628.40333,0.15601
626.91354,0.16354
625.42375,0.24309
623.93396,0.24919
622.44417,0.17794
620.95438,0.10674
619.46460,0.20365
617.97481,0.25316
616.48502,0.36107
614.99523,0.30392
613.50544,0.24683
612.01565,0.24872
610.52587,0.27518
609.03608,0.23830
607.54629,0.18183
606.05650,0.12542
604.56671,0.26259
603.07692,0.27806
601.58714,0.28932
600.09735,0.30063
598.60756,0.25599
597.11777,0.28181
595.62798,0.32403
594.13819,0.27859
592.64840,0.23321
591.15862,0.12702
589.66883,0.11968
588.17904,0.19253
586.68925,0.29150
585.19946,0.39053
583.70967,0.38421
582.21989,0.32387
580.73010,0.30405
579.24031,0.28429
577.75052,0.15256
576.26073,0.27995
574.77094,0.31521
573.28115,0.34236
571.79137,0.36956
570.30158,0.44312
568.81179,0.34986
567.32200,0.34982
565.83221,0.34984
564.34242,0.62123
562.85264,0.71764
561.36285,0.63596
559.87306,0.63816
558.38327,0.64041
556.89348,0.87125
555.40369,1.03253
553.91391,1.05110
552.42412,1.06974
550.93433,1.18645
549.44454,1.11302
547.95475,1.05248
546.46496,1.06784
544.97517,1.08327
543.48539,1.07892
541.99560,1.10030
540.50581,1.05561
539.01602,1.01098
537.52623,0.96368
536.03644,0.95807
534.54666,1.04431
533.05687,1.16173
531.56708,1.27921
530.07729,1.05756
528.58750,0.93476
527.09771,0.92989
525.60792,0.92507
524.11814,1.04946
522.62835,0.84638
521.13856,0.72738
519.64877,0.69460
518.15898,0.66187
516.66919,0.69359
515.17941,0.78409
513.68962,0.78286
512.19983,0.78168
510.71004,0.83735
509.22025,0.94015
507.73046,0.71432
506.24068,0.73361
504.75089,0.75295
503.26110,0.74902
501.77131,0.73191
500.28152,0.77458
498.79173,0.81730
497.30194,0.70974
495.81216,0.81812
494.32237,0.80559
492.83258,0.79312
491.34279,0.52242
489.85300,0.50385
488.36321,0.54678
486.87343,0.56644
485.38364,0.58616
483.89385,0.48652
482.40406,0.43750
480.91427,0.41617
479.42448,0.39489
477.93469,0.34721
476.44491,0.15646
474.95512,0.08653
473.46533,0.01667
471.97554,0.02480
470.48575,0.15668
468.99596,0.13769
467.50618,0.09212
466.01639,0.04661
464.52660,0.06631
463.03681,0.22260
461.54702,0.25058
460.05723,0.27863
458.56745,0.23982
457.07766,0.28043
455.58787,0.33180
454.09808,0.38322
452.60829,0.44073
451.11850,0.55081
449.62871,0.61777
448.13893,0.68480
446.64914,0.69509
445.15935,0.73772
443.66956,0.74579
442.17977,0.81013
440.68998,0.87453
439.20020,0.75208
437.71041,0.67831
436.22062,0.70593
434.73083,0.73361
433.24104,0.73937
431.75125,0.92957
430.26146,0.91191
428.77168,0.89432
427.28189,0.78751
425.79210,0.90403
424.30231,0.94262
422.81252,0.98127
421.32273,0.89882
419.83295,1.01091
418.34316,1.04468
416.85337,1.07851
415.36358,0.84925
413.87379,0.85616
412.38400,0.92109
410.89422,0.98608
409.40443,0.94454
407.91464,0.68990
406.42485,0.57653
404.93506,0.53614
403.44527,0.49581
401.95548,0.49580
400.46570,0.53475
398.97591,0.48059
397.48612,0.42650
395.99633,0.36254
394.50654,0.32276
393.01675,0.37133
391.52697,0.41997
390.03718,0.52584
388.54739,0.58859
387.05760,0.54619
385.56781,0.50384
384.07802,0.32638
382.58824,0.36370
381.09845,0.35343
379.60866,0.34321
378.11887,0.41649
376.62908,0.42603
375.13929,0.36270
373.64950,0.29943
372.15972,0.24419
370.66993,0.20924
369.18014,0.22073
367.69035,0.23228
366.20056,0.30651
364.71077,0.35863
363.22099,0.46585
361.73120,0.57313
360.24141,0.56164
358.75162,0.23824
357.26183,0.25487
355.77204,0.27156
354.28225,0.31786
352.79247,0.23704
351.30268,0.18777
349.81289,0.13857
348.32310,0.28235
346.83331,0.48026
345.34352,0.39855
343.85374,0.31690
342.36395,0.27888
340.87416,0.26230
339.38437,0.26407
337.89458,0.26590
336.40479,0.23200
334.91501,0.14331
333.42522,0.07996
331.93543,0.01667
330.44564,0.12994
328.95585,0.25028
327.46606,0.27245
325.97627,0.29468
324.48649,0.33099
322.99670,0.26077
321.50691,0.18769
320.01712,0.11467
318.52733,0.11386
317.03754,0.10845
315.54776,0.10504
314.05797,0.10168
312.56818,0.16179
311.07839,0.24686
309.58860,0.21859
308.09881,0.19038
306.60902,0.04885
305.11924,0.01667
303.62945,0.10676
302.13966,0.03803
300.64987,0.04346
299.16008,0.01667
