1778.52000,0.08284
1777.03021,0.01357
1775.54042,0.19226
1774.05063,0.25961
1772.56085,0.14857
1771.07106,0.15542
1769.58127,0.16060
1768.09148,0.10577
1766.60169,0.22540
1765.11190,0.21913
1763.62212,0.17094
1762.13233,0.26222
1760.64254,0.27134
1759.15275,0.25953
1757.66296,0.29154
1756.17317,0.16556
1754.68339,0.00000
1753.19360,0.04564
1751.70381,0.20101
1750.21402,0.07592
1748.72423,0.08212
1747.23444,0.07091
1745.74465,0.13033
1744.25487,0.18692
1742.76508,0.09719
1741.27529,0.05885
1739.78550,0.01943
1738.29571,0.10547
1736.80592,0.06911
1735.31614,0.16405
1733.82635,0.08526
1732.33656,0.12668
1730.84677,0.14952
1729.35698,0.06920
1727.86719,0.09569
1726.37740,0.05693
1724.88762,0.01357
1723.39783,0.14965
1721.90804,0.09916
1720.41825,0.11932
1718.92846,0.16754
1717.43867,0.10969
1715.94889,0.15224
1714.45910,0.11787
1712.96931,0.12381
1711.47952,0.12458
1709.98973,0.15575
1708.49994,0.11468
1707.01016,0.09234
1705.52037,0.07008
1704.03058,0.13421
1702.54079,0.08118
1701.05100,0.17112
1699.56121,0.20514
1698.07142,0.26082
1696.58164,0.19758
1695.09185,0.18809
1693.60206,0.19616
1692.11227,0.33028
1690.62248,0.33384
1689.13269,0.25231
1687.64291,0.26126
1686.15312,0.31753
1684.66333,0.28463
1683.17354,0.28389
1681.68375,0.33455
1680.19396,0.37886
1678.70417,0.28735
1677.21439,0.13118
1675.72460,0.01357
1674.23481,0.07963
1672.74502,0.20642
1671.25523,0.33969
1669.76544,0.29107
1668.27566,0.18303
1666.78587,0.19405
1665.29608,0.30663
1663.80629,0.24605
1662.31650,0.30745
1660.82671,0.34734
1659.33693,0.35639
1657.84714,0.24537
1656.35735,0.17700
1654.86756,0.16820
1653.37777,0.15830
1651.88798,0.16714
1650.39819,0.09265
1648.90841,0.14596
1647.41862,0.13811
1645.92883,0.10758
1644.43904,0.07713
1642.94925,0.14182
1641.45946,0.32673
1639.96968,0.34491
1638.47989,0.37424
1636.99010,0.32725
1635.50031,0.22200
1634.01052,0.20373
1632.52073,0.31268
1631.03094,0.22690
1629.54116,0.10795
1628.05137,0.01357
1626.56158,0.01952
1625.07179,0.06637
1623.58200,0.12088
1622.09221,0.31310
1620.60243,0.30885
1619.11264,0.35074
1617.62285,0.34722
1616.13306,0.32861
1614.64327,0.32815
1613.15348,0.21928
1611.66370,0.22072
1610.17391,0.16449
1608.68412,0.30547
1607.19433,0.29546
1605.70454,0.33744
1604.21475,0.33692
1602.72496,0.33646
1601.23518,0.18853
1599.74539,0.27046
1598.25560,0.35247
1596.76581,0.25899
1595.27602,0.23675
1593.78623,0.21224
1592.29645,0.13707
1590.80666,0.12146
1589.31687,0.16833
1587.82708,0.31326
1586.33729,0.27454
1584.84750,0.32630
1583.35771,0.36764
1581.86793,0.29590
1580.37814,0.32163
1578.88835,0.25296
1577.39856,0.24793
1575.90877,0.23189
1574.41898,0.06720
1572.92920,0.02273
1571.43941,0.08857
1569.94962,0.06525
1568.45983,0.04200
1566.97004,0.01357
1565.48025,0.08737
1563.99047,0.20381
1562.50068,0.11502
1561.01089,0.09455
1559.52110,0.10098
1558.03131,0.15357
1556.54152,0.25230
1555.05173,0.05598
1553.56195,0.05629
1552.07216,0.07126
1550.58237,0.18778
1549.09258,0.26589
1547.60279,0.26533
1546.11300,0.20885
1544.62322,0.23702
1543.13343,0.31658
1541.64364,0.26791
1540.15385,0.22602
1538.66406,0.18420
1537.17427,0.23431
1535.68448,0.17544
1534.19470,0.11955
1532.70491,0.11390
1531.21512,0.03249
1529.72533,0.01357
1528.23554,0.08297
1526.74575,0.17519
1525.25597,0.27623
1523.76618,0.23445
1522.27639,0.10701
1520.78660,0.11670
1519.29681,0.19821
1517.80702,0.30254
1516.31724,0.25996
1514.82745,0.26120
1513.33766,0.26951
1511.84787,0.27790
1510.35808,0.28461
1508.86829,0.18583
1507.37850,0.18511
1505.88872,0.07539
1504.39893,0.01357
1502.90914,0.08820
1501.41935,0.21131
1499.92956,0.08136
1498.43977,0.20637
1496.94999,0.26904
1495.46020,0.36911
1493.97041,0.44534
1492.48062,0.40209
1490.99083,0.52163
1489.50104,0.57767
1488.01125,0.49906
1486.52147,0.42052
1485.03168,0.38288
1483.54189,0.51271
1482.05210,0.53121
1480.56231,0.64660
1479.07252,0.62734
1477.58274,0.72013
1476.09295,0.79259
1474.60316,0.87561
1473.11337,0.85956
1471.62358,1.12587
1470.13379,0.98341
1468.64401,1.02298
1467.15422,0.94774
1465.66443,0.90377
1464.17464,0.85987
1462.68485,0.74461
1461.19506,0.59617
1459.70527,0.52246
1458.21549,0.47623
1456.72570,0.47091
1455.23591,0.49715
1453.74612,0.47623
1452.25633,0.49679
1450.76654,0.25088
1449.27676,0.25993
1447.78697,0.18272
1446.29718,0.20416
1444.80739,0.16706
1443.31760,0.13003
1441.82781,0.17911
1440.33802,0.04803
1438.84824,0.14449
1437.35845,0.15121
1435.86866,0.14109
1434.37887,0.15145
1432.88908,0.13623
1431.39929,0.05867
1429.90951,0.05643
1428.41972,0.10908
1426.92993,0.17522
1425.44014,0.17786
1423.95035,0.10768
1422.46056,0.03756
1420.97078,0.10341
1419.48099,0.20900
1417.99120,0.21435
1416.50141,0.29384
1415.01162,0.18968
1413.52183,0.18825
1412.03204,0.19505
1410.54226,0.25793
1409.05247,0.27829
1407.56268,0.12726
1406.07289,0.28192
1404.58310,0.32934
1403.09331,0.37684
1401.60353,0.32875
1400.11374,0.34315
1398.62395,0.26313
1397.13416,0.25376
1395.64437,0.26546
1394.15458,0.36706
1392.66479,0.52588
1391.17501,0.54597
1389.68522,0.38300
1388.19543,0.35832
1386.70564,0.40604
1385.21585,0.45384
1383.72606,0.35007
1382.23628,0.37876
1380.74649,0.43494
1379.25670,0.38738
1377.76691,0.47054
1376.27712,0.51120
1374.78733,0.54551
1373.29755,0.49650
1371.80776,0.58170
1370.31797,0.71539
1368.82818,0.78295
1367.33839,0.85059
1365.84860,0.88302
1364.35881,0.92310
1362.86903,0.98775
1361.37924,0.98307
1359.88945,0.96796
1358.39966,0.97684
1356.90987,0.95022
1355.42008,0.89509
1353.93030,0.93744
1352.44051,0.86117
1350.95072,0.78497
1349.46093,0.64032
1347.97114,0.64214
1346.48135,0.71168
1344.99156,0.51476
1343.50178,0.54188
1342.01199,0.40518
1340.52220,0.46685
1339.03241,0.43003
1337.54262,0.42187
1336.05283,0.37966
1334.56305,0.33752
1333.07326,0.34766
1331.58347,0.29254
1330.09368,0.36815
1328.60389,0.32427
1327.11410,0.26179
1325.62432,0.19939
1324.13453,0.16564
1322.64474,0.08298
1321.15495,0.12054
1319.66516,0.08730
1318.17537,0.05414
1316.68558,0.07034
1315.19580,0.13793
1313.70601,0.19336
1312.21622,0.05113
1310.72643,0.02505
1309.23664,0.17168
1307.74685,0.21981
1306.25707,0.14438
1304.76728,0.08476
1303.27749,0.02522
1301.78770,0.01357
1300.29791,0.03794
1298.80812,0.18836
1297.31834,0.06123
1295.82855,0.12956
1294.33876,0.16938
1292.84897,0.27694
1291.35918,0.33499
1289.86939,0.28347
1288.37960,0.23202
1286.88982,0.16431
1285.40003,0.31598
1283.91024,0.16793
1282.42045,0.27950
1280.93066,0.27217
1279.44087,0.26607
1277.95109,0.26355
1276.46130,0.13745
1274.97151,0.14441
1273.48172,0.15144
1271.99193,0.28219
1270.50214,0.32028
1269.01235,0.49375
1267.52257,0.50924
1266.03278,0.30318
1264.54299,0.33864
1263.05320,0.47800
1261.56341,0.51945
1260.07362,0.56098
1258.58384,0.43926
1257.09405,0.39462
1255.60426,0.50227
1254.11447,0.41519
1252.62468,0.31185
1251.13489,0.29608
1249.64511,0.33812
1248.15532,0.30441
1246.66553,0.24365
1245.17574,0.18297
1243.68595,0.24630
1242.19616,0.29863
1240.70637,0.42451
1239.21659,0.29093
1237.72680,0.22158
1236.23701,0.41534
1234.74722,0.39688
1233.25743,0.36070
1231.76764,0.32460
1230.27786,0.30461
1228.78807,0.25320
1227.29828,0.26076
1225.80849,0.22933
1224.31870,0.20614
1222.82891,0.06987
1221.33912,0.01357
1219.84934,0.09063
1218.35955,0.16777
1216.86976,0.13037
1215.37997,0.21086
1213.89018,0.33283
1212.40039,0.23733
1210.91061,0.32854
1209.42082,0.39300
1207.93103,0.34729
1206.44124,0.30166
1204.95145,0.12313
1203.46166,0.19488
1201.97188,0.01357
1200.48209,0.16034
1198.99230,0.04647
1197.50251,0.12631
1196.01272,0.03009
1194.52293,0.04446
1193.03314,0.05891
1191.54336,0.25745
1190.05357,0.34174
1188.56378,0.26805
1187.07399,0.12736
1185.58420,0.01357
1184.09441,0.03074
1182.60463,0.11155
1181.11484,0.19244
1179.62505,0.25999
1178.13526,0.22262
1176.64547,0.31365
1175.15568,0.19244
1173.66589,0.22296
1172.17611,0.18472
1170.68632,0.16844
1169.19653,0.15222
1167.70674,0.31076
1166.21695,0.24133
1164.72716,0.18188
1163.23738,0.01461
1161.74759,0.15128
1160.25780,0.20754
1158.76801,0.22713
1157.27822,0.24679
1155.78843,0.34993
1154.29865,0.30733
1152.80886,0.44211
1151.31907,0.56939
1149.82928,0.45644
1148.33949,0.51329
1146.84970,0.48185
1145.35991,0.45048
1143.87013,0.50289
1142.38034,0.41480
1140.89055,0.31455
1139.40076,0.32868
1137.91097,0.54585
1136.42118,0.59279
1134.93140,0.61035
1133.44161,0.62799
1131.95182,0.56550
1130.46203,0.68273
1128.97224,0.81752
1127.48245,0.84916
1125.99266,0.89195
1124.50288,0.81992
1123.01309,0.81912
1121.52330,0.81839
1120.03351,0.87839
1118.54372,0.83931
1117.05393,0.73207
1115.56415,0.76780
1114.07436,0.79135
1112.58457,0.78290
1111.09478,0.77452
1109.60499,0.83679
1108.11520,0.80756
1106.62542,0.86414
1105.13563,0.94821
1103.64584,0.87605
1102.15605,0.73572
1100.66626,0.71444
1099.17647,0.69324
1097.68668,0.63653
1096.19690,0.44926
1094.70711,0.51634
1093.21732,0.73515
1091.72753,0.74523
1090.23774,0.84549
1088.74795,0.94583
1087.25817,1.10660
1085.76838,0.98342
1084.27859,1.03702
1082.78880,0.98106
1081.29901,0.99399
1079.80922,1.02740
1078.31943,0.99557
1076.82965,0.96381
1075.33986,1.09018
1073.85007,1.14314
1072.36028,1.02761
1070.87049,1.11980
1069.38070,1.05866
1067.89092,1.02414
1066.40113,0.98969
1064.91134,1.18773
1063.42155,1.27853
1061.93176,1.23235
1060.44197,1.01943
1058.95219,1.06963
1057.46240,1.08315
1055.97261,1.09675
1054.48282,0.98270
1052.99303,1.00170
1051.50324,0.75831
1050.01345,0.63689
1048.52367,0.63453
1047.03388,0.61650
1045.54409,0.59854
1044.05430,0.47975
1042.56451,0.33537
1041.07472,0.37479
1039.58494,0.42886
1038.09515,0.33837
1036.60536,0.36517
1035.11557,0.39206
1033.62578,0.39977
1032.13599,0.37372
1030.64620,0.26843
1029.15642,0.39592
1027.66663,0.40189
1026.17684,0.40792
1024.68705,0.52747
1023.19726,0.64652
1021.70747,0.86478
1020.21769,1.02480
1018.72790,1.16331
1017.23811,1.26981
1015.74832,1.37639
1014.25853,1.62594
1012.76874,1.67143
1011.27896,1.87038
1009.78917,2.00000
1008.29938,1.79258
1006.80959,1.76371
1005.31980,1.73491
1003.83001,1.72893
1002.34022,1.87175
1000.85044,1.82160
999.36065,1.65078
997.87086,1.60281
996.38107,1.55492
994.89128,1.47415
993.40149,1.43369
991.91171,1.25916
990.42192,1.18386
988.93213,1.08297
987.44234,1.01044
985.95255,0.93798
984.46276,1.10268
982.97297,0.92452
981.48319,0.94822
979.99340,0.66814
978.50361,0.74332
977.01382,0.81857
975.52403,0.84432
974.03424,0.72842
972.54446,0.66684
971.05467,0.45193
969.56488,0.42082
968.07509,0.37696
966.58530,0.33316
965.09551,0.25912
963.60573,0.21197
962.11594,0.23372
960.62615,0.28296
959.13636,0.31536
957.64657,0.34783
956.15678,0.32321
954.66699,0.23219
953.17721,0.25205
951.68742,0.15417
950.19763,0.15172
948.70784,0.14935
947.21805,0.15376
945.72826,0.29180
944.23848,0.28703
942.74869,0.24908
941.25890,0.37102
939.76911,0.36355
938.27932,0.35615
936.78953,0.41940
935.29974,0.44073
933.80996,0.65285
932.32017,0.75015
930.83038,0.71076
929.34059,0.67143
927.85080,0.67564
926.36101,0.78373
924.87123,0.78283
923.38144,0.76042
921.89165,0.80283
920.40186,0.84531
918.91207,0.98702
917.42228,0.84127
915.93250,0.80173
914.44271,0.76694
912.95292,0.82554
911.46313,0.88421
909.97334,0.86597
908.48355,0.60517
906.99376,0.26805
905.50398,0.11530
904.01419,0.06440
902.52440,0.01357
901.03461,0.13959
899.54482,0.22660
898.05503,0.41225
896.56525,0.49008
895.07546,0.51607
893.58567,0.54214
892.09588,0.55894
890.60609,0.43876
889.11630,0.62428
887.62651,0.67630
886.13673,0.68728
884.64694,0.69833
883.15715,0.67184
881.66736,0.65825
880.17757,0.72873
878.68778,0.80452
877.19800,0.88039
875.70821,0.98958
874.21842,1.05452
872.72863,1.08162
871.23884,1.20969
869.74905,1.27835
868.25927,1.34708
866.76948,1.39664
865.27969,1.31329
863.78990,1.37525
862.30011,1.44019
860.81032,1.46730
859.32053,1.49448
857.83075,1.57656
856.34096,1.40208
854.85117,1.26560
853.36138,1.11169
851.87159,1.03658
850.38180,0.96156
848.89202,1.04350
847.40223,1.05844
845.91244,0.95214
844.42265,0.77971
842.93286,0.60736
841.44307,0.52753
839.95329,0.58892
838.46350,0.68770
836.97371,0.65242
835.48392,0.55743
833.99413,0.46251
832.50434,0.27347
831.01455,0.27464
829.52477,0.42111
828.03498,0.44867
826.54519,0.46494
825.05540,0.48128
823.56561,0.32826
822.07582,0.16015
820.58604,0.26041
819.09625,0.29308
817.60646,0.32583
816.11667,0.36682
814.62688,0.22941
813.13709,0.12006
811.64730,0.05221
810.15752,0.03604
808.66773,0.01995
807.17794,0.04679
805.68815,0.12038
804.19836,0.11121
802.70857,0.20011
801.21879,0.28907
799.72900,0.17515
798.23921,0.19427
796.74942,0.21172
795.25963,0.19571
793.76984,0.17977
792.28006,0.27152
790.79027,0.09388
789.30048,0.05512
787.81069,0.08935
786.32090,0.07844
784.83111,0.06761
783.34132,0.13414
781.85154,0.08350
780.36175,0.02245
778.87196,0.05070
777.38217,0.07902
775.89238,0.09692
774.40259,0.13939
772.91281,0.19710
771.42302,0.25722
769.93323,0.31741
768.44344,0.31701
766.95365,0.26420
765.46386,0.20272
763.97407,0.01357
762.48429,0.06813
760.99450,0.12276
759.50471,0.22792
758.01492,0.13309
756.52513,0.15791
755.03534,0.11806
753.54556,0.07828
752.05577,0.16689
750.56598,0.29640
749.07619,0.30642
747.58640,0.26607
746.09661,0.22578
744.60683,0.19053
743.11704,0.11161
741.62725,0.26373
740.13746,0.18321
738.64767,0.10276
737.15788,0.12212
735.66809,0.10189
734.17831,0.16573
732.68852,0.18589
731.19873,0.20613
729.70894,0.19378
728.21915,0.17392
726.72936,0.14539
725.23958,0.08543
723.74979,0.04947
722.26000,0.01357
720.77021,0.14996
719.28042,0.20534
717.79063,0.26955
716.30084,0.21602
714.81106,0.16256
713.32127,0.20367
711.83148,0.28858
710.34169,0.18169
708.85190,0.22330
707.36211,0.26499
705.87233,0.17115
704.38254,0.11646
702.89275,0.15983
701.40296,0.20881
699.91317,0.25786
698.42338,0.27054
696.93360,0.25880
695.44381,0.28445
693.95402,0.32331
692.46423,0.36223
690.97444,0.37995
689.48465,0.23034
687.99486,0.26453
686.50508,0.32475
685.01529,0.38504
683.52550,0.45329
682.03571,0.41487
680.54592,0.37244
679.05613,0.38316
677.56635,0.39395
676.07656,0.32375
674.58677,0.40468
673.09698,0.35621
671.60719,0.20224
670.11740,0.04835
668.62761,0.13949
667.13783,0.05748
665.64804,0.11524
664.15825,0.17306
662.66846,0.26450
661.17867,0.20262
659.68888,0.15714
658.19910,0.13915
656.70931,0.12124
655.21952,0.01357
653.72973,0.13635
652.23994,0.19388
650.75015,0.19316
649.26037,0.19252
647.77058,0.05605
646.28079,0.14129
644.79100,0.21027
643.30121,0.13351
641.81142,0.05683
640.32163,0.03446
638.83185,0.06641
637.34206,0.02261
635.85227,0.02876
634.36248,0.03498
632.87269,0.01357
631.38290,0.06181
629.89312,0.05996
628.40333,0.11213
626.91354,0.16438
625.42375,0.06477
623.93396,0.05272
622.44417,0.08507
620.95438,0.11749
619.46460,0.06658
617.97481,0.08807
616.48502,0.22511
614.99523,0.14030
613.50544,0.05557
612.01565,0.04061
610.52587,0.05080
609.03608,0.18880
607.54629,0.12857
606.05650,0.06841
604.56671,0.01357
603.07692,0.04712
601.58714,0.11253
600.09735,0.17801
598.60756,0.12138
597.11777,0.16864
595.62798,0.25330
594.13819,0.17735
592.64840,0.10147
591.15862,0.02830
589.66883,0.05376
588.17904,0.11954
586.68925,0.17461
585.19946,0.22975
583.70967,0.26717
582.21989,0.14253
580.73010,0.15881
579.24031,0.17517
577.75052,0.18489
576.26073,0.24252
574.77094,0.22497
573.28115,0.24775
571.79137,0.27060
570.30158,0.39209
568.81179,0.44600
567.32200,0.39734
565.83221,0.34875
564.34242,0.52302
562.85264,0.55682
561.36285,0.55161
559.87306,0.55055
558.38327,0.54957
556.89348,0.72538
555.40369,0.85928
553.91391,0.92063
552.42412,0.98206
550.93433,1.22466
549.44454,1.16813
547.95475,1.03002
546.46496,0.97277
544.97517,0.91559
543.48539,1.01333
541.99560,1.03182
540.50581,1.07635
539.01602,1.12094
537.52623,1.09300
536.03644,1.01031
534.54666,0.99418
533.05687,1.03469
531.56708,1.07528
530.07729,1.02671
528.58750,0.94906
527.09771,0.95371
525.60792,0.95843
524.11814,1.01981
522.62835,0.83921
521.13856,0.79167
519.64877,0.71853
518.15898,0.64547
516.66919,0.67689
515.17941,0.63839
513.68962,0.63787
512.19983,0.63743
510.71004,0.80445
509.22025,0.91672
507.73046,0.74970
506.24068,0.69939
504.75089,0.64916
503.26110,0.64216
501.77131,0.75947
500.28152,0.72462
498.79173,0.68985
497.30194,0.62307
495.81216,0.73018
494.32237,0.68775
492.83258,0.64540
491.34279,0.53693
489.85300,0.52301
488.36321,0.49459
486.87343,0.43183
485.38364,0.36914
483.89385,0.29720
482.40406,0.30698
480.91427,0.29030
479.42448,0.27370
477.93469,0.25045
476.44491,0.07623
474.95512,0.09280
473.46533,0.10944
471.97554,0.07483
470.48575,0.03913
468.99596,0.12249
467.50618,0.06800
466.01639,0.01357
464.52660,0.06695
463.03681,0.08191
461.54702,0.12727
460.05723,0.17270
458.56745,0.20363
457.07766,0.17047
455.58787,0.24645
454.09808,0.32251
452.60829,0.33099
451.11850,0.55184
449.62871,0.60274
448.13893,0.65373
446.64914,0.78206
445.15935,0.81248
443.66956,0.75258
442.17977,0.68371
440.68998,0.61491
439.20020,0.70921
437.71041,0.65426
436.22062,0.73091
434.73083,0.80764
433.24104,0.94889
431.75125,0.85866
430.26146,0.80088
428.77168,0.74317
427.28189,0.75290
425.79210,0.88519
424.30231,0.95922
422.81252,1.03333
421.32273,0.84506
419.83295,0.86332
418.34316,0.97119
416.85337,1.07912
415.36358,0.99554
413.87379,0.89746
412.38400,0.87293
410.89422,0.84848
409.40443,0.80777
407.91464,0.68140
406.42485,0.64842
404.93506,0.60443
403.44527,0.56052
401.95548,0.53943
400.46570,0.56623
398.97591,0.55550
397.48612,0.54483
395.99633,0.34615
394.50654,0.14812
393.01675,0.22780
391.52697,0.30756
390.03718,0.37281
388.54739,0.53962
387.05760,0.54698
385.56781,0.55442
384.07802,0.50099
382.58824,0.25749
381.09845,0.24182
379.60866,0.22623
378.11887,0.26699
376.62908,0.26292
375.13929,0.22101
373.64950,0.17917
372.15972,0.18115
370.66993,0.30160
369.18014,0.29965
367.69035,0.29777
366.20056,0.22714
364.71077,0.25451
363.22099,0.25833
361.73120,0.26223
360.24141,0.16909
358.75162,0.17284
357.26183,0.15917
355.77204,0.14557
354.28225,0.27961
352.79247,0.15301
351.30268,0.21808
349.81289,0.28323
348.32310,0.28866
346.83331,0.43343
345.34352,0.37269
343.85374,0.31201
342.36395,0.29661
340.87416,0.36177
339.38437,0.26895
337.89458,0.17620
336.40479,0.14418
334.91501,0.06266
333.42522,0.03808
331.93543,0.01357
330.44564,0.23938
328.95585,0.48218
327.46606,0.47893
325.97627,0.47574
324.48649,0.33966
322.99670,0.22875
321.50691,0.12113
320.01712,0.01357
318.52733,0.06385
317.03754,0.08095
315.54776,0.07130
314.05797,0.06172
312.56818,0.16303
311.07839,0.35423
309.58860,0.27168
308.09881,0.18920
306.60902,0.17707
305.11924,0.22742
303.62945,0.17579
302.13966,0.01357
300.64987,0.11064
299.16008,0.01357
