1778.52000,0.28897
1777.03021,0.04652
1775.54042,0.27676
1774.05063,0.08751
1772.56085,0.05691
1771.07106,0.00081
1769.58127,0.12190
1768.09148,0.16183
1766.60169,0.32756
1765.11190,0.37928
1763.62212,0.46832
1762.13233,0.24779
1760.64254,0.45712
1759.15275,0.64665
1757.66296,0.69792
1756.17317,0.31400
1754.68339,0.17722
1753.19360,0.04064
1751.70381,0.22971
1750.21402,0.13492
1748.72423,0.42287
1747.23444,0.08293
1745.74465,0.30275
1744.25487,0.42570
1742.76508,0.38326
1741.27529,0.48660
1739.78550,0.40172
1738.29571,0.20569
1736.80592,0.22682
1735.31614,0.18819
1733.82635,0.46666
1732.33656,0.57973
1730.84677,0.27046
1729.35698,0.05988
1727.86719,0.00081
1726.37740,0.13379
1724.88762,0.26839
1723.39783,0.47028
1721.90804,0.60813
1720.41825,0.31649
1718.92846,0.49897
1717.43867,0.44041
1715.94889,0.63327
1714.45910,0.45089
1712.96931,0.28584
1711.47952,0.48499
1709.98973,0.60582
1708.49994,0.38282
1707.01016,0.26922
1705.52037,0.15581
1704.03058,0.03474
1702.54079,0.04947
1701.05100,0.15862
1699.56121,0.31934
1698.07142,0.57589
1696.58164,0.58712
1695.09185,0.51146
1693.60206,0.78287
1692.11227,0.69760
1690.62248,0.55829
1689.13269,0.63186
1687.64291,0.41299
1686.15312,0.47552
1684.66333,0.30985
1683.17354,0.50839
1681.68375,0.32883
1680.19396,0.51490
1678.70417,0.33288
1677.21439,0.05826
1675.72460,0.00081
1674.23481,0.22318
1672.74502,0.36580
1671.25523,0.92258
1669.76544,0.83862
1668.27566,0.29235
1666.78587,0.19165
1665.29608,0.37235
1663.80629,0.34911
1662.31650,0.64725
1660.82671,0.92274
1659.33693,0.80302
1657.84714,0.53503
1656.35735,0.14590
1654.86756,0.15951
1653.37777,0.09908
1651.88798,0.23013
1650.39819,0.47272
1648.90841,0.54277
1647.41862,0.40460
1645.92883,0.32444
1644.43904,0.24447
1642.94925,0.26677
1641.45946,0.40630
1639.96968,0.66023
1638.47989,0.61029
1636.99010,0.63907
1635.50031,0.60665
1634.01052,0.27608
1632.52073,0.30686
1631.03094,0.47059
1629.54116,0.27050
1628.05137,0.12343
1626.56158,0.00081
1625.07179,0.39443
1623.58200,0.22439
1622.09221,0.41712
1620.60243,0.39164
1619.11264,0.61759
1617.62285,0.58822
1616.13306,0.84881
1614.64327,0.72418
1613.15348,0.37991
1611.66370,0.32847
1610.17391,0.52275
1608.68412,0.94276
1607.19433,1.01465
1605.70454,0.68420
1604.21475,0.70652
1602.72496,0.72904
1601.23518,0.55618
1599.74539,0.57908
1598.25560,0.74350
1596.76581,0.60405
1595.27602,0.49335
1593.78623,0.27721
1592.29645,0.35960
1590.80666,0.30515
1589.31687,0.39935
1587.82708,0.68217
1586.33729,0.73964
1584.84750,0.72450
1583.35771,0.54825
1581.86793,0.36363
1580.37814,0.62743
1578.88835,0.96850
1577.39856,0.58889
1575.90877,0.70338
1574.41898,0.28134
1572.92920,0.00081
1571.43941,0.41650
1569.94962,0.49051
1568.45983,0.56471
1566.97004,0.45996
1565.48025,0.34541
1563.99047,0.69640
1562.50068,0.70785
1561.01089,0.55534
1559.52110,0.53434
1558.03131,0.68055
1556.54152,0.52862
1555.05173,0.35403
1553.56195,0.19677
1552.07216,0.06397
1550.58237,0.45524
1549.09258,0.35281
1547.60279,0.55461
1546.11300,0.53535
1544.62322,0.65475
1543.13343,0.75721
1541.64364,0.66573
1540.15385,0.58229
1538.66406,0.49905
1537.17427,0.50664
1535.68448,0.76995
1534.19470,0.56238
1532.70491,0.31075
1531.21512,0.08643
1529.72533,0.09357
1528.23554,0.24934
1526.74575,0.29398
1525.25597,0.69138
1523.76618,0.81205
1522.27639,0.65885
1520.78660,0.52867
1519.29681,0.56570
1517.80702,1.01546
1516.31724,1.00006
1514.82745,0.80499
1513.33766,0.68149
1511.84787,0.55818
1510.35808,0.51643
1508.86829,0.64474
1507.37850,0.60052
1505.88872,0.64071
1504.39893,0.34136
1502.90914,0.00081
1501.41935,0.08281
1499.92956,0.57327
1498.43977,0.75130
1496.94999,1.02660
1495.46020,1.34633
1493.97041,1.37649
1492.48062,0.97288
1490.99083,1.42453
1489.50104,1.31251
1488.01125,1.01584
1486.52147,0.71935
1485.03168,0.36096
1483.54189,0.70651
1482.05210,0.79103
1480.56231,0.86717
1479.07252,0.74794
1477.58274,0.79164
1476.09295,1.01396
1474.60316,1.22648
1473.11337,1.05949
1471.62358,1.39231
1470.13379,1.52262
1468.64401,1.44471
1467.15422,1.02440
1465.66443,1.01683
1464.17464,1.00944
1462.68485,0.95229
1461.19506,0.79683
1459.70527,0.58590
1458.21549,0.58500
1456.72570,0.89976
1455.23591,0.88497
1453.74612,0.97029
1452.25633,1.17287
1450.76654,0.70900
1449.27676,0.59934
1447.78697,0.62406
1446.29718,0.53191
1444.80739,0.36359
1443.31760,0.19546
1441.82781,0.37940
1440.33802,0.37653
1438.84824,0.60225
1437.35845,0.46701
1435.86866,0.44616
1434.37887,0.41694
1432.88908,0.30084
1431.39929,0.32625
1429.90951,0.51458
1428.41972,0.63745
1426.92993,0.71911
1425.44014,0.48407
1423.95035,0.39767
1422.46056,0.31146
1420.97078,0.28256
1419.48099,0.75202
1417.99120,0.85483
1416.50141,0.47106
1415.01162,0.38582
1413.52183,0.42782
1412.03204,0.42719
1410.54226,0.55522
1409.05247,0.65918
1407.56268,0.53208
1406.07289,0.80201
1404.58310,0.84018
1403.09331,0.87853
1401.60353,1.06768
1400.11374,0.72457
1398.62395,0.30457
1397.13416,0.28874
1395.64437,0.53718
1394.15458,0.63593
1392.66479,0.84337
1391.17501,0.92395
1389.68522,0.47227
1388.19543,0.00081
1386.70564,0.49158
1385.21585,0.98254
1383.72606,0.93269
1382.23628,0.71744
1380.74649,0.58518
1379.25670,0.51877
1377.76691,0.86224
1376.27712,1.30012
1374.78733,1.26570
1373.29755,0.82321
1371.80776,0.81201
1370.31797,1.20784
1368.82818,1.35191
1367.33839,1.49617
1365.84860,1.46005
1364.35881,1.32991
1362.86903,1.33700
1361.37924,1.16442
1359.88945,1.22757
1358.39966,1.03111
1356.90987,1.27736
1355.42008,1.06844
1353.93030,0.97676
1352.44051,0.82818
1350.95072,0.67979
1349.46093,0.80710
1347.97114,1.09305
1346.48135,1.21503
1344.99156,1.03744
1343.50178,1.04561
1342.01199,0.95833
1340.52220,0.89123
1339.03241,0.99705
1337.54262,0.85468
1336.05283,0.67610
1334.56305,0.49772
1333.07326,0.24458
1331.58347,0.22718
1330.09368,0.75240
1328.60389,0.94379
1327.11410,0.86130
1325.62432,0.97742
1324.13453,0.60839
1322.64474,0.44225
1321.15495,0.00081
1319.66516,0.16772
1318.17537,0.33482
1316.68558,0.26587
1315.19580,0.70529
1313.70601,1.10636
1312.21622,0.80531
1310.72643,0.34743
1309.23664,0.36937
1307.74685,0.34155
1306.25707,0.49520
1304.76728,0.48989
1303.27749,0.48477
1301.78770,0.43630
1300.29791,0.39945
1298.80812,0.23717
1297.31834,0.47906
1295.82855,0.92242
1294.33876,0.78784
1292.84897,0.80334
1291.35918,0.76479
1289.86939,0.53444
1288.37960,0.30428
1286.88982,0.48757
1285.40003,0.30990
1283.91024,0.12957
1282.42045,0.58465
1280.93066,0.55031
1279.44087,0.56897
1277.95109,0.82479
1276.46130,0.83527
1274.97151,0.57830
1273.48172,0.32152
1271.99193,0.37256
1270.50214,0.60793
1269.01235,0.71502
1267.52257,1.01501
1266.03278,0.85698
1264.54299,0.53640
1263.05320,0.53007
1261.56341,0.73948
1260.07362,0.94907
1258.58384,0.80057
1257.09405,1.02055
1255.60426,1.29781
1254.11447,0.89295
1252.62468,0.40976
1251.13489,0.61052
1249.64511,1.14123
1248.15532,0.87559
1246.66553,0.74219
1245.17574,0.60899
1243.68595,0.25828
1242.19616,0.49732
1240.70637,0.36541
1239.21659,0.02099
1237.72680,0.00081
1236.23701,0.77160
1234.74722,1.13432
1233.25743,1.10683
1231.76764,1.07952
1230.27786,1.03885
1228.78807,0.70574
1227.29828,0.96951
1225.80849,0.43123
1224.31870,0.42417
1222.82891,0.32450
1221.33912,0.55193
1219.84934,0.61610
1218.35955,0.68047
1216.86976,0.19188
1215.37997,0.21452
1213.89018,0.44719
1212.40039,0.73573
1210.91061,1.07727
1209.42082,1.03217
1207.93103,0.71460
1206.44124,0.39724
1204.95145,0.12003
1203.46166,0.23129
1201.97188,0.26138
1200.48209,0.30165
1198.99230,0.30072
1197.50251,0.42559
1196.01272,0.22235
1194.52293,0.32977
1193.03314,0.43738
1191.54336,0.78857
1190.05357,1.12425
1188.56378,0.89770
1187.07399,0.56857
1185.58420,0.13257
1184.09441,0.00081
1182.60463,0.36362
1181.11484,0.72663
1179.62505,1.05343
1178.13526,0.93505
1176.64547,0.45856
1175.15568,0.43050
1173.66589,0.42975
1172.17611,0.50628
1170.68632,0.71004
1169.19653,0.91400
1167.70674,0.80554
1166.21695,0.76008
1164.72716,0.44216
1163.23738,0.04450
1161.74759,0.21802
1160.25780,0.03058
1158.76801,0.03889
1157.27822,0.04741
1155.78843,0.29592
1154.29865,0.37905
1152.80886,0.87776
1151.31907,0.63438
1149.82928,0.36265
1148.33949,0.77914
1146.84970,0.61343
1145.35991,0.44790
1143.87013,0.09272
1142.38034,0.36581
1140.89055,0.47637
1139.40076,0.67705
1137.91097,0.60385
1136.42118,0.85059
1134.93140,0.86699
1133.44161,0.88359
1131.95182,0.71694
1130.46203,0.56905
1128.97224,0.88242
1127.48245,0.90193
1125.99266,1.08008
1124.50288,1.04858
1123.01309,0.97517
1121.52330,0.90195
1120.03351,0.87389
1118.54372,0.83174
1117.05393,1.08099
1115.56415,0.47110
1114.07436,0.23683
1112.58457,0.42885
1111.09478,0.62106
1109.60499,0.99546
1108.11520,1.04889
1106.62542,1.01970
1105.13563,0.98786
1103.64584,0.92481
1102.15605,0.69778
1100.66626,0.75146
1099.17647,0.80532
1097.68668,0.27768
1096.19690,0.24699
1094.70711,0.35354
1093.21732,0.18477
1091.72753,0.41019
1090.23774,0.58511
1088.74795,0.76024
1087.25817,1.16894
1085.76838,1.20955
1084.27859,1.23608
1082.78880,0.91735
1081.29901,0.44751
1079.80922,0.50031
1078.31943,0.52262
1076.82965,0.54512
1075.33986,0.78121
1073.85007,0.65493
1072.36028,0.73581
1070.87049,0.73410
1069.38070,0.98525
1067.89092,0.83118
1066.40113,0.67731
1064.91134,0.68922
1063.42155,1.19522
1061.93176,1.21608
1060.44197,0.51340
1058.95219,0.80872
1057.46240,0.87370
1055.97261,0.93887
1054.48282,1.01779
1052.99303,0.87993
1051.50324,0.68801
1050.01345,0.29645
1048.52367,0.08922
1047.03388,0.04492
1045.54409,0.00081
1044.05430,0.27227
1042.56451,0.11853
1041.07472,0.11773
1039.58494,0.16280
1038.09515,0.31227
1036.60536,0.30776
1035.11557,0.30345
1033.62578,0.69759
1032.13599,0.75362
1030.64620,0.32592
1029.15642,0.29098
1027.66663,0.19127
1026.17684,0.09176
1024.68705,0.38429
1023.19726,0.81690
1021.70747,0.84430
1020.21769,0.95611
1018.72790,0.68841
1017.23811,0.56079
1015.74832,0.43337
1014.25853,0.68442
1012.76874,1.34963
1011.27896,1.67815
1009.78917,1.44016
1008.29938,1.15097
1006.80959,1.08894
1005.31980,1.02710
1003.83001,1.36943
1002.34022,1.45787
1000.85044,1.54507
999.36065,1.34268
997.87086,1.45311
996.38107,1.56372
994.89128,2.00000
993.40149,1.88261
991.91171,1.54273
990.42192,0.65203
988.93213,0.16978
987.44234,0.18306
985.95255,0.19654
984.46276,0.74265
982.97297,1.03772
981.48319,0.91188
979.99340,0.64634
978.50361,0.57370
977.01382,0.50126
975.52403,0.50038
974.03424,0.43546
972.54446,0.60769
971.05467,0.79724
969.56488,0.39316
968.07509,0.33187
966.58530,0.27076
965.09551,0.22127
963.60573,0.20195
962.11594,0.41979
960.62615,0.33804
959.13636,0.44206
957.64657,0.54628
956.15678,0.04258
954.66699,0.14005
953.17721,0.54033
951.68742,0.29558
950.19763,0.14810
948.70784,0.00081
947.21805,0.08356
945.72826,0.33494
944.23848,0.25820
942.74869,0.51568
941.25890,0.41935
939.76911,0.30678
938.27932,0.19441
936.78953,0.36845
935.29974,0.24861
933.80996,0.63572
932.32017,1.01446
930.83038,0.89306
929.34059,0.77186
927.85080,0.76433
926.36101,0.75985
924.87123,1.33226
923.38144,0.89279
921.89165,0.98739
920.40186,1.08217
918.91207,1.21998
917.42228,0.98113
915.93250,0.97229
914.44271,1.20346
912.95292,1.39913
911.46313,1.59500
909.97334,1.48130
908.48355,1.26073
906.99376,0.32519
905.50398,0.00081
904.01419,0.10642
902.52440,0.21224
901.03461,0.39746
899.54482,0.86980
898.05503,0.87270
896.56525,0.82297
895.07546,1.03610
893.58567,1.24941
892.09588,1.11889
890.60609,0.44471
889.11630,0.73711
887.62651,1.01115
886.13673,1.15334
884.64694,1.29573
883.15715,1.16780
881.66736,0.73030
880.17757,0.82687
878.68778,0.75805
877.19800,0.68942
875.70821,0.89648
874.21842,1.02237
872.72863,1.40540
871.23884,1.31613
869.74905,1.27416
868.25927,1.23238
866.76948,1.35924
865.27969,1.07517
863.78990,1.20955
862.30011,1.16426
860.81032,1.33971
859.32053,1.51535
857.83075,1.71759
856.34096,1.40328
854.85117,1.13770
853.36138,0.79523
851.87159,0.77770
850.38180,0.76036
848.89202,0.74678
847.40223,1.23016
845.91244,1.19984
844.42265,0.99556
842.93286,0.79148
841.44307,0.32065
839.95329,0.90634
838.46350,1.06969
836.97371,1.20754
835.48392,1.15930
833.99413,1.11126
832.50434,0.49170
831.01455,0.00081
829.52477,0.16346
828.03498,0.59039
826.54519,0.72203
825.05540,0.85386
823.56561,0.85598
822.07582,0.39008
820.58604,0.49822
819.09625,0.54018
817.60646,0.58233
816.11667,0.78098
814.62688,0.70289
813.13709,0.50509
811.64730,0.21327
810.15752,0.27779
808.66773,0.34251
807.17794,0.43811
805.68815,0.67094
804.19836,0.62133
802.70857,0.64257
801.21879,0.66400
799.72900,0.39228
798.23921,0.22067
796.74942,0.32334
795.25963,0.30486
793.76984,0.28657
792.28006,0.57824
790.79027,0.43614
789.30048,0.12295
787.81069,0.30100
786.32090,0.28724
784.83111,0.27368
783.34132,0.15683
781.85154,0.23715
780.36175,0.09498
778.87196,0.10218
777.38217,0.10957
775.89238,0.00081
774.40259,0.23175
772.91281,0.31586
771.42302,0.39802
769.93323,0.48037
768.44344,0.61216
766.95365,0.55001
765.46386,0.52945
763.97407,0.07798
762.48429,0.12347
760.99450,0.16915
759.50471,0.44627
758.01492,0.18401
756.52513,0.13605
755.03534,0.27458
753.54556,0.41329
752.05577,0.56576
750.56598,0.60994
749.07619,0.48587
747.58640,0.56612
746.09661,0.64656
744.60683,0.38888
743.11704,0.45401
741.62725,0.32947
740.13746,0.50561
738.64767,0.68195
737.15788,0.53943
735.66809,0.39569
734.17831,0.12080
732.68852,0.29577
731.19873,0.47092
729.70894,0.46356
728.21915,0.31078
726.72936,0.39516
725.23958,0.10858
723.74979,0.10342
722.26000,0.09844
720.77021,0.09509
719.28042,0.20470
717.79063,0.32021
716.30084,0.16041
714.81106,0.00081
713.32127,0.11368
711.83148,0.41231
710.34169,0.49559
708.85190,0.64972
707.36211,0.80404
705.87233,0.61239
704.38254,0.11261
702.89275,0.04268
701.40296,0.08287
699.91317,0.12324
698.42338,0.13812
696.93360,0.37444
695.44381,0.59526
693.95402,0.60786
692.46423,0.62065
690.97444,0.75354
689.48465,0.49693
687.99486,0.29189
686.50508,0.25621
685.01529,0.22072
683.52550,0.72143
682.03571,0.57427
680.54592,0.93548
679.05613,1.03423
677.56635,1.13317
676.07656,0.82548
674.58677,0.66072
673.09698,0.44905
671.60719,0.27612
670.11740,0.10338
668.62761,0.30340
667.13783,0.54929
665.64804,0.44850
664.15825,0.34791
662.66846,0.76711
661.17867,0.45135
659.68888,0.38987
658.19910,0.36713
656.70931,0.34459
655.21952,0.10240
653.72973,0.23583
652.23994,0.36232
650.75015,0.36481
649.26037,0.36750
647.77058,0.44889
646.28079,0.36631
644.79100,0.44380
643.30121,0.41728
641.81142,0.39095
640.32163,0.00081
638.83185,0.02289
637.34206,0.13652
635.85227,0.08476
634.36248,0.03319
632.87269,0.16453
631.38290,0.13904
629.89312,0.02095
628.40333,0.13931
626.91354,0.25786
625.42375,0.30166
623.93396,0.47698
622.44417,0.39983
620.95438,0.32288
619.46460,0.64295
617.97481,0.83332
616.48502,1.04529
614.99523,0.67006
613.50544,0.29501
612.01565,0.00081
610.52587,0.51130
609.03608,0.79930
607.54629,0.55006
606.05650,0.30100
604.56671,0.24556
603.07692,0.43013
601.58714,0.48142
600.09735,0.53291
598.60756,0.38688
597.11777,0.63646
595.62798,0.82627
594.13819,0.52380
592.64840,0.22153
591.15862,0.00081
589.66883,0.04356
588.17904,0.56899
586.68925,0.64996
585.19946,0.73112
583.70967,0.70327
582.21989,0.29306
580.73010,0.30057
579.24031,0.30827
577.75052,0.30974
576.26073,0.32283
574.77094,0.21049
573.28115,0.24609
571.79137,0.28188
570.30158,0.51271
568.81179,0.66808
567.32200,0.74085
565.83221,0.81381
564.34242,0.84414
562.85264,0.77760
561.36285,0.68984
559.87306,0.55944
558.38327,0.42924
556.89348,0.66324
555.40369,1.38134
553.91391,1.52437
552.42412,1.66758
550.93433,1.81242
549.44454,1.32080
547.95475,0.82081
546.46496,0.70214
544.97517,0.58367
543.48539,0.81655
541.99560,0.94541
540.50581,1.11301
539.01602,1.28081
537.52623,1.31461
536.03644,1.20015
534.54666,0.92315
533.05687,1.23589
531.56708,1.54882
530.07729,1.23672
528.58750,0.91196
527.09771,0.96852
525.60792,1.02528
524.11814,1.02799
522.62835,0.87530
521.13856,1.05254
519.64877,1.02799
518.15898,1.00364
516.66919,1.09867
515.17941,0.96407
513.68962,0.75615
512.19983,0.54842
510.71004,0.82123
509.22025,1.27267
507.73046,1.18043
506.24068,1.10623
504.75089,1.03222
503.26110,0.82922
501.77131,0.76345
500.28152,0.80636
498.79173,0.84946
497.30194,0.74145
495.81216,0.93482
494.32237,0.97636
492.83258,1.01809
491.34279,0.44692
489.85300,0.36984
488.36321,0.38860
486.87343,0.46251
485.38364,0.53661
483.89385,0.35325
482.40406,0.30712
480.91427,0.24119
479.42448,0.17546
477.93469,0.46536
476.44491,0.79542
474.95512,0.74454
473.46533,0.69386
471.97554,0.49063
470.48575,0.22478
468.99596,0.03193
467.50618,0.01627
466.01639,0.00081
464.52660,0.24259
463.03681,0.40748
461.54702,0.52761
460.05723,0.64792
458.56745,0.16817
457.07766,0.33098
455.58787,0.27772
454.09808,0.22465
452.60829,0.59502
451.11850,0.75860
449.62871,0.70683
448.13893,0.65525
446.64914,1.11061
445.15935,0.87099
443.66956,0.73006
442.17977,0.85768
440.68998,0.98550
439.20020,0.89796
437.71041,0.60220
436.22062,0.73702
434.73083,0.87204
433.24104,1.13928
431.75125,1.21544
430.26146,1.15689
428.77168,1.09854
427.28189,0.93546
425.79210,1.07949
424.30231,1.12092
422.81252,1.16255
421.32273,0.72189
419.83295,0.33709
418.34316,0.62625
416.85337,0.91560
415.36358,0.67984
413.87379,0.82255
412.38400,0.93048
410.89422,1.03860
409.40443,0.81360
407.91464,0.60592
406.42485,0.53976
404.93506,0.59155
403.44527,0.64354
401.95548,0.82063
400.46570,0.92082
398.97591,0.68718
397.48612,0.45373
395.99633,0.44887
394.50654,0.48418
393.01675,0.59390
391.52697,0.70381
390.03718,0.64263
388.54739,0.91566
387.05760,1.06898
385.56781,1.22249
384.07802,1.17778
382.58824,0.44379
381.09845,0.50224
379.60866,0.56088
378.11887,1.14503
376.62908,0.78724
375.13929,0.55954
373.64950,0.33203
372.15972,0.87204
370.66993,0.92119
369.18014,0.79495
367.69035,0.66891
366.20056,0.52165
364.71077,0.87562
363.22099,1.00568
361.73120,1.13592
360.24141,0.72963
358.75162,0.41061
357.26183,0.46720
355.77204,0.52399
354.28225,0.50532
352.79247,0.44687
351.30268,0.31010
349.81289,0.17352
348.32310,0.53247
346.83331,0.65525
345.34352,0.46418
343.85374,0.27330
342.36395,0.60078
340.87416,0.68008
339.38437,0.66678
337.89458,0.65368
336.40479,0.41523
334.91501,0.30116
333.42522,0.15089
331.93543,0.00081
330.44564,0.12731
328.95585,0.88353
327.46606,0.80773
325.97627,0.73211
324.48649,0.74314
322.99670,0.26758
321.50691,0.13410
320.01712,0.00081
318.52733,0.59781
317.03754,0.86240
315.54776,0.50267
314.05797,0.14313
312.56818,0.45255
311.07839,0.64654
309.58860,0.53810
308.09881,0.42985
306.60902,0.51451
305.11924,0.38952
303.62945,0.37320
302.13966,0.00081
300.64987,-0.00000
299.16008,0.00081
