1778.52000,0.05121
1777.03021,0.06811
1775.54042,0.04430
1774.05063,0.00337
1772.56085,0.05035
1771.07106,0.05235
1769.58127,0.06294
1768.09148,0.03926
1766.60169,0.07349
1765.11190,0.07558
1763.62212,0.07771
1762.13233,0.09701
1760.64254,0.02201
1759.15275,0.07351
1757.66296,0.07360
1756.17317,0.04798
1754.68339,0.05669
1753.19360,0.02041
1751.70381,0.05275
1750.21402,0.04867
1748.72423,0.09393
1747.23444,0.04274
1745.74465,0.06018
1744.25487,0.05621
1742.76508,0.08442
1741.27529,0.05263
1739.78550,0.05946
1738.29571,0.08131
1736.80592,0.09033
1735.31614,0.03507
1733.82635,0.02913
1732.33656,0.03180
1730.84677,0.05164
1729.35698,0.04364
1727.86719,0.06354
1726.37740,0.07059
1724.88762,0.10125
1723.39783,0.09121
1721.90804,0.07263
1720.41825,0.03691
1718.92846,0.00337
1717.43867,0.10458
1715.94889,0.07935
1714.45910,0.10773
1712.96931,0.07397
1711.47952,0.04238
1709.98973,0.06440
1708.49994,0.07359
1707.01016,0.07745
1705.52037,0.08133
1704.03058,0.11847
1702.54079,0.07846
1701.05100,0.10493
1699.56121,0.15929
1698.07142,0.08721
1696.58164,0.05373
1695.09185,0.07173
1693.60206,0.15621
1692.11227,0.08208
1690.62248,0.10016
1689.13269,0.11826
1687.64291,0.11495
1686.15312,0.07522
1684.66333,0.00337
1683.17354,0.02779
1681.68375,0.06295
1680.19396,0.07028
1678.70417,0.10764
1677.21439,0.05499
1675.72460,0.10097
1674.23481,0.09554
1672.74502,0.04940
1671.25523,0.09975
1669.76544,0.09439
1668.27566,0.11050
1666.78587,0.09019
1665.29608,0.03560
1663.80629,0.05607
1662.31650,0.05727
1660.82671,0.07779
1659.33693,0.08762
1657.84714,0.06318
1656.35735,0.02376
1654.86756,0.05724
1653.37777,0.10361
1651.88798,0.07499
1650.39819,0.07854
1648.90841,0.12070
1647.41862,0.03428
1645.92883,0.04755
1644.43904,0.06086
1642.94925,0.07526
1641.45946,0.04038
1639.96968,0.02911
1638.47989,0.14219
1636.99010,0.01522
1635.50031,0.07476
1634.01052,0.08074
1632.52073,0.03745
1631.03094,0.05420
1629.54116,0.09241
1628.05137,0.08564
1626.56158,0.07889
1625.07179,0.09788
1623.58200,0.01187
1622.09221,0.02020
1620.60243,0.01141
1619.11264,0.03480
1617.62285,0.01749
1616.13306,0.01091
1614.64327,0.13942
1613.15348,0.04501
1611.66370,0.06639
1610.17391,0.02348
1608.68412,0.01061
1607.19433,0.08994
1605.70454,0.04496
1604.21475,0.03967
1602.72496,0.03441
1601.23518,0.03881
1599.74539,0.10970
1598.25560,0.05842
1596.76581,0.04576
1595.27602,0.02669
1593.78623,0.01836
1592.29645,0.00363
1590.80666,0.07682
1589.31687,0.03213
1587.82708,0.02391
1586.33729,0.06930
1584.84750,0.04613
1583.35771,0.11301
1581.86793,0.02558
1580.37814,0.00677
1578.88835,0.03300
1577.39856,0.01424
1575.90877,0.08768
1574.41898,0.06254
1572.92920,0.03100
1571.43941,0.05522
1569.94962,0.06553
1568.45983,0.07586
1566.97004,0.02513
1565.48025,0.03873
1563.99047,0.01378
1562.50068,0.05959
1561.01089,0.07541
1559.52110,0.00337
1558.03131,0.07407
1556.54152,0.09977
1555.05173,0.01189
1553.56195,0.08052
1552.07216,0.08059
1550.58237,0.08281
1549.09258,0.13009
1547.60279,0.12379
1546.11300,0.14754
1544.62322,0.26563
1543.13343,0.21011
1541.64364,0.16533
1540.15385,0.12809
1538.66406,0.09087
1537.17427,0.09547
1535.68448,0.01865
1534.19470,0.07047
1532.70491,0.00870
1531.21512,0.06057
1529.72533,0.04172
1528.23554,0.02934
1526.74575,0.10272
1525.25597,0.08395
1523.76618,0.03091
1522.27639,0.00791
1520.78660,0.07926
1519.29681,0.10132
1517.80702,0.00337
1516.31724,0.06350
1514.82745,0.02933
1513.33766,0.02841
1511.84787,0.02752
1510.35808,0.04488
1508.86829,0.13729
1507.37850,0.07967
1505.88872,0.10140
1504.39893,0.05240
1502.90914,0.02702
1501.41935,0.00166
1499.92956,0.02991
1498.43977,0.05177
1496.94999,0.04792
1495.46020,0.00337
1493.97041,0.10589
1492.48062,0.06909
1490.99083,0.09449
1489.50104,0.09204
1488.01125,0.12606
1486.52147,0.16011
1485.03168,0.08700
1483.54189,0.12753
1482.05210,0.18095
1480.56231,0.19796
1479.07252,0.24714
1477.58274,0.22346
1476.09295,0.26198
1474.60316,0.25765
1473.11337,0.25120
1471.62358,0.26193
1470.13379,0.22124
1468.64401,0.26846
1467.15422,0.22138
1465.66443,0.20113
1464.17464,0.18090
1462.68485,0.17678
1461.19506,0.15125
1459.70527,0.19434
1458.21549,0.11741
1456.72570,0.11124
1455.23591,0.07938
1453.74612,0.05612
1452.25633,0.08219
1450.76654,0.05684
1449.27676,0.04866
1447.78697,0.07481
1446.29718,0.08598
1444.80739,0.10145
1443.31760,0.11696
1441.82781,0.09176
1440.33802,0.10732
1438.84824,0.04359
1437.35845,0.04419
1435.86866,0.04482
1434.37887,0.02619
1432.88908,0.08260
1431.39929,0.09832
1429.90951,0.03260
1428.41972,0.08266
1426.92993,0.13275
1425.44014,0.10141
1423.95035,0.12797
1422.46056,0.15455
1420.97078,0.12972
1419.48099,0.17565
1417.99120,0.11442
1416.50141,0.10467
1415.01162,0.11210
1413.52183,0.14527
1412.03204,0.07557
1410.54226,0.15381
1409.05247,0.16563
1407.56268,0.18604
1406.07289,0.20220
1404.58310,0.19051
1403.09331,0.17885
1401.60353,0.21222
1400.11374,0.23920
1398.62395,0.23190
1397.13416,0.19676
1395.64437,0.27955
1394.15458,0.19730
1392.66479,0.25442
1391.17501,0.24082
1389.68522,0.22296
1388.19543,0.21584
1386.70564,0.20982
1385.21585,0.20383
1383.72606,0.19893
1382.23628,0.15119
1380.74649,0.18708
1379.25670,0.11581
1377.76691,0.21820
1376.27712,0.30990
1374.78733,0.23013
1373.29755,0.37118
1371.80776,0.38150
1370.31797,0.52046
1368.82818,0.54477
1367.33839,0.56910
1365.84860,0.73815
1364.35881,0.78932
1362.86903,0.80623
1361.37924,0.88532
1359.88945,0.88084
1358.39966,0.85495
1356.90987,0.80765
1355.42008,0.77109
1353.93030,0.86532
1352.44051,0.85346
1350.95072,0.84163
1349.46093,0.78589
1347.97114,0.57368
1346.48135,0.44939
1344.99156,0.23509
1343.50178,0.22017
1342.01199,0.23101
1340.52220,0.24616
1339.03241,0.20988
1337.54262,0.18436
1336.05283,0.17171
1334.56305,0.15910
1333.07326,0.13579
1331.58347,0.11465
1330.09368,0.15571
1328.60389,0.10032
1327.11410,0.09855
1325.62432,0.12253
1324.13453,0.09081
1322.64474,0.00337
1321.15495,0.04589
1319.66516,0.06701
1318.17537,0.08815
1316.68558,0.10074
1315.19580,0.05333
1313.70601,0.08526
1312.21622,0.03362
1310.72643,0.07418
1309.23664,0.06332
1307.74685,0.05892
1306.25707,0.05240
1304.76728,0.07055
1303.27749,0.08874
1301.78770,0.03299
1300.29791,0.11232
1298.80812,0.07591
1297.31834,0.08027
1295.82855,0.00533
1294.33876,0.05046
1292.84897,0.03989
1291.35918,0.07007
1289.86939,0.06812
1288.37960,0.06619
1286.88982,0.03000
1285.40003,0.09243
1283.91024,0.02628
1282.42045,0.02446
1280.93066,0.00337
1279.44087,0.02043
1277.95109,0.03752
1276.46130,0.08250
1274.97151,0.06748
1273.48172,0.05249
1271.99193,0.02895
1270.50214,0.08689
1269.01235,0.06340
1267.52257,0.07853
1266.03278,0.09582
1264.54299,0.10671
1263.05320,0.03187
1261.56341,0.04174
1260.07362,0.05164
1258.58384,0.11193
1257.09405,0.03935
1255.60426,0.05468
1254.11447,0.08289
1252.62468,0.04683
1251.13489,0.10082
1249.64511,0.09696
1248.15532,0.06526
1246.66553,0.08396
1245.17574,0.10269
1243.68595,0.09250
1242.19616,0.00517
1240.70637,0.02934
1239.21659,0.02352
1237.72680,0.01129
1236.23701,0.03553
1234.74722,0.02121
1233.25743,0.01228
1231.76764,0.00337
1230.27786,0.05863
1228.78807,0.00673
1227.29828,0.09849
1225.80849,0.04236
1224.31870,0.04842
1222.82891,0.02449
1221.33912,0.02417
1219.84934,0.02174
1218.35955,0.01932
1216.86976,0.04910
1215.37997,0.04674
1213.89018,0.07870
1212.40039,0.04853
1210.91061,0.00337
1209.42082,0.03934
1207.93103,0.03567
1206.44124,0.03203
1204.95145,0.03806
1203.46166,0.09771
1201.97188,0.03520
1200.48209,0.02845
1198.99230,0.01958
1197.50251,0.03003
1196.01272,0.04479
1194.52293,0.05636
1193.03314,0.06796
1191.54336,0.01206
1190.05357,0.10195
1188.56378,0.00323
1187.07399,0.08328
1185.58420,0.02616
1184.09441,0.00337
1182.60463,0.03287
1181.11484,0.06238
1179.62505,0.05013
1178.13526,0.09792
1176.64547,0.09215
1175.15568,0.02638
1173.66589,0.11498
1172.17611,0.04712
1170.68632,0.05539
1169.19653,0.06368
1167.70674,0.04949
1166.21695,0.04175
1164.72716,0.09406
1163.23738,0.03279
1161.74759,0.05729
1160.25780,0.10539
1158.76801,0.07421
1157.27822,0.04305
1155.78843,0.07836
1154.29865,0.09871
1152.80886,0.09549
1151.31907,0.06872
1149.82928,0.11915
1148.33949,0.05813
1146.84970,0.07003
1145.35991,0.08195
1143.87013,0.09390
1142.38034,0.14231
1140.89055,0.10929
1139.40076,0.12132
1137.91097,0.10335
1136.42118,0.10042
1134.93140,0.10609
1133.44161,0.11179
1131.95182,0.09179
1130.46203,0.14898
1128.97224,0.17834
1127.48245,0.12840
1125.99266,0.13423
1124.50288,0.17438
1123.01309,0.19205
1121.52330,0.20974
1120.03351,0.15565
1118.54372,0.15303
1117.05393,0.19117
1115.56415,0.21432
1114.07436,0.19034
1112.58457,0.24356
1111.09478,0.29681
1109.60499,0.21932
1108.11520,0.32406
1106.62542,0.27877
1105.13563,0.37500
1103.64584,0.40264
1102.15605,0.42389
1100.66626,0.40979
1099.17647,0.39572
1097.68668,0.37203
1096.19690,0.43839
1094.70711,0.47477
1093.21732,0.53690
1091.72753,0.53475
1090.23774,0.54548
1088.74795,0.55624
1087.25817,0.60347
1085.76838,0.64215
1084.27859,0.63155
1082.78880,0.62955
1081.29901,0.63187
1079.80922,0.64278
1078.31943,0.64729
1076.82965,0.65183
1075.33986,0.68212
1073.85007,0.60525
1072.36028,0.53269
1070.87049,0.53304
1069.38070,0.53556
1067.89092,0.54561
1066.40113,0.55569
1064.91134,0.52613
1063.42155,0.50089
1061.93176,0.38136
1060.44197,0.43977
1058.95219,0.37173
1057.46240,0.36803
1055.97261,0.36436
1054.48282,0.31140
1052.99303,0.31635
1051.50324,0.32776
1050.01345,0.19557
1048.52367,0.33564
1047.03388,0.29890
1045.54409,0.26218
1044.05430,0.27586
1042.56451,0.19310
1041.07472,0.20683
1039.58494,0.16700
1038.09515,0.19793
1036.60536,0.14422
1035.11557,0.09053
1033.62578,0.16441
1032.13599,0.12471
1030.64620,0.15577
1029.15642,0.19114
1027.66663,0.17939
1026.17684,0.16765
1024.68705,0.18381
1023.19726,0.13998
1021.70747,0.24837
1020.21769,0.32034
1018.72790,0.36018
1017.23811,0.38612
1015.74832,0.41208
1014.25853,0.45200
1012.76874,0.44693
1011.27896,0.55121
1009.78917,0.52905
1008.29938,0.56479
1006.80959,0.63914
1005.31980,0.71351
1003.83001,0.88866
1002.34022,1.04669
1000.85044,1.07184
999.36065,1.29852
997.87086,1.35051
996.38107,1.40253
994.89128,1.44494
993.40149,1.59455
991.91171,1.73346
990.42192,1.76308
988.93213,1.79701
987.44234,1.89849
985.95255,2.00000
984.46276,1.70174
982.97297,1.80866
981.48319,1.72911
979.99340,1.67745
978.50361,1.69548
977.01382,1.71354
975.52403,1.63838
974.03424,1.73474
972.54446,1.58674
971.05467,1.56739
969.56488,1.45375
968.07509,1.39801
966.58530,1.34229
965.09551,1.29304
963.60573,1.42816
962.11594,1.33179
960.62615,1.25903
959.13636,1.19487
957.64657,1.13074
956.15678,1.10308
954.66699,0.92752
953.17721,0.92563
951.68742,0.91305
950.19763,0.92836
948.70784,0.94370
947.21805,0.91619
945.72826,0.88442
944.23848,0.89554
942.74869,0.76950
941.25890,0.79140
939.76911,0.76402
938.27932,0.73666
936.78953,0.81652
935.29974,0.81922
933.80996,0.76194
932.32017,0.79899
930.83038,0.78356
929.34059,0.76815
927.85080,0.85244
926.36101,0.79743
924.87123,0.82175
923.38144,0.87612
921.89165,0.91121
920.40186,0.94633
918.91207,0.90431
917.42228,1.01665
915.93250,1.07114
914.44271,1.11065
912.95292,1.10625
911.46313,1.10187
909.97334,1.11573
908.48355,1.14892
906.99376,1.22929
905.50398,1.28610
904.01419,1.30758
902.52440,1.32907
901.03461,1.40955
899.54482,1.48362
898.05503,1.34549
896.56525,1.52894
895.07546,1.47983
893.58567,1.43074
892.09588,1.39775
890.60609,1.29406
889.11630,1.23326
887.62651,1.26895
886.13673,1.29073
884.64694,1.31254
883.15715,1.21969
881.66736,1.20618
880.17757,1.15625
878.68778,1.06991
877.19800,0.98360
875.70821,0.97448
874.21842,0.77031
872.72863,0.77625
871.23884,0.78221
869.74905,0.73247
868.25927,0.68275
866.76948,0.63091
865.27969,0.60054
863.78990,0.51660
862.30011,0.57202
860.81032,0.54387
859.32053,0.51574
857.83075,0.52623
856.34096,0.50673
854.85117,0.45081
853.36138,0.34133
851.87159,0.32619
850.38180,0.31108
848.89202,0.32601
847.40223,0.29809
845.91244,0.24233
844.42265,0.19946
842.93286,0.15661
841.44307,0.11164
839.95329,0.08599
838.46350,0.17184
836.97371,0.11409
835.48392,0.13997
833.99413,0.16588
832.50434,0.09320
831.01455,0.17703
829.52477,0.18372
828.03498,0.08968
826.54519,0.11143
825.05540,0.13320
823.56561,0.13571
822.07582,0.13824
820.58604,0.09792
819.09625,0.11658
817.60646,0.13527
816.11667,0.04573
814.62688,0.00337
813.13709,0.05652
811.64730,0.06254
810.15752,0.04287
808.66773,0.02321
807.17794,0.04003
805.68815,0.05473
804.19836,0.16163
802.70857,0.14315
801.21879,0.12470
799.72900,0.17809
798.23921,0.22293
796.74942,0.14132
795.25963,0.20657
793.76984,0.27185
792.28006,0.19889
790.79027,0.28673
789.30048,0.23526
787.81069,0.28886
786.32090,0.26852
784.83111,0.24821
783.34132,0.28902
781.85154,0.28270
780.36175,0.30856
778.87196,0.31836
777.38217,0.32819
775.89238,0.34341
774.40259,0.43796
772.91281,0.39964
771.42302,0.42351
769.93323,0.44740
768.44344,0.33627
766.95365,0.31949
765.46386,0.37990
763.97407,0.30958
762.48429,0.32288
760.99450,0.33621
759.50471,0.28526
758.01492,0.22790
756.52513,0.21773
755.03534,0.21402
753.54556,0.21033
752.05577,0.15307
750.56598,0.18159
749.07619,0.09652
747.58640,0.10580
746.09661,0.11510
744.60683,0.06441
743.11704,0.06304
741.62725,0.08314
740.13746,0.04324
738.64767,0.00337
737.15788,0.14328
735.66809,0.14388
734.17831,0.15522
732.68852,0.11193
731.19873,0.06866
729.70894,0.09937
728.21915,0.09366
726.72936,0.10514
725.23958,0.08877
723.74979,0.06706
722.26000,0.04539
720.77021,0.00337
719.28042,0.09212
717.79063,0.04799
716.30084,0.03497
714.81106,0.02198
713.32127,0.00151
711.83148,0.02160
710.34169,0.01171
708.85190,0.04364
707.36211,0.07561
705.87233,0.02506
704.38254,0.03457
702.89275,0.00337
701.40296,0.07850
699.91317,0.15366
698.42338,0.03592
696.93360,0.27190
695.44381,0.25067
693.95402,0.26484
692.46423,0.27903
690.97444,0.09925
689.48465,0.06955
687.99486,0.05917
686.50508,0.03810
685.01529,0.01705
683.52550,0.07320
682.03571,0.08436
680.54592,0.00337
679.05613,0.02059
677.56635,0.03784
676.07656,0.04976
674.58677,0.07456
673.09698,0.11654
671.60719,0.06101
670.11740,0.00550
668.62761,0.08400
667.13783,0.10036
665.64804,0.07601
664.15825,0.05170
662.66846,0.09171
661.17867,0.04815
659.68888,0.02391
658.19910,0.01363
656.70931,0.00337
655.21952,0.03742
653.72973,0.05221
652.23994,0.11632
650.75015,0.07435
649.26037,0.03241
647.77058,0.12661
646.28079,0.14796
644.79100,0.21006
643.30121,0.20038
641.81142,0.19072
640.32163,0.10927
638.83185,0.10502
637.34206,0.09223
635.85227,0.08160
634.36248,0.07100
632.87269,0.10544
631.38290,0.10132
629.89312,0.06293
628.40333,0.03314
626.91354,0.00337
625.42375,0.05276
623.93396,0.03358
622.44417,0.04015
620.95438,0.04675
619.46460,0.08767
617.97481,-0.00000
616.48502,0.01525
614.99523,0.08090
613.50544,0.14658
612.01565,0.02685
610.52587,0.08722
609.03608,0.05330
607.54629,0.10086
606.05650,0.14844
604.56671,0.11888
603.07692,0.12150
601.58714,0.12629
600.09735,0.13110
598.60756,0.04591
597.11777,0.01219
595.62798,0.05996
594.13819,0.03165
592.64840,0.00337
591.15862,0.05104
589.66883,0.09658
588.17904,0.10143
586.68925,0.15774
585.19946,0.21408
583.70967,0.16327
582.21989,0.19394
580.73010,0.23107
579.24031,0.26822
577.75052,0.24752
576.26073,0.25472
574.77094,0.29624
573.28115,0.31420
571.79137,0.33219
570.30158,0.42738
568.81179,0.44971
567.32200,0.43991
565.83221,0.43013
564.34242,0.56830
562.85264,0.62503
561.36285,0.63891
559.87306,0.64318
558.38327,0.64746
556.89348,0.72788
555.40369,0.77188
553.91391,0.79125
552.42412,0.81065
550.93433,0.84401
549.44454,0.75092
547.95475,0.78647
546.46496,0.81562
544.97517,0.84479
543.48539,0.83112
541.99560,0.89679
540.50581,0.89495
539.01602,0.89315
537.52623,1.11967
536.03644,0.95607
534.54666,0.94684
533.05687,0.97836
531.56708,1.00991
530.07729,0.92359
528.58750,0.83301
527.09771,0.81962
525.60792,0.80626
524.11814,0.76505
522.62835,0.69386
521.13856,0.65486
519.64877,0.62873
518.15898,0.60264
516.66919,0.53584
515.17941,0.53552
513.68962,0.51915
512.19983,0.50281
510.71004,0.47684
509.22025,0.47234
507.73046,0.42285
506.24068,0.37338
504.75089,0.32394
503.26110,0.36670
501.77131,0.26586
500.28152,0.26258
498.79173,0.25933
497.30194,0.26147
495.81216,0.30436
494.32237,0.25081
492.83258,0.19729
491.34279,0.26812
489.85300,0.19536
488.36321,0.18264
486.87343,0.17746
485.38364,0.17230
483.89385,0.18324
482.40406,0.20921
480.91427,0.21699
479.42448,0.22480
477.93469,0.20583
476.44491,0.14616
474.95512,0.14011
473.46533,0.13409
471.97554,0.12166
470.48575,0.05137
468.99596,0.16547
467.50618,0.17027
466.01639,0.17509
464.52660,0.03846
463.03681,0.07763
461.54702,0.14791
460.05723,0.21822
458.56745,0.18672
457.07766,0.23457
455.58787,0.20099
454.09808,0.16744
452.60829,0.22608
451.11850,0.18615
449.62871,0.24485
448.13893,0.30357
446.64914,0.38375
445.15935,0.34392
443.66956,0.37271
442.17977,0.38331
440.68998,0.39393
439.20020,0.49354
437.71041,0.57602
436.22062,0.60066
434.73083,0.62531
433.24104,0.69930
431.75125,0.67899
430.26146,0.68873
428.77168,0.69848
427.28189,0.67397
425.79210,0.82740
424.30231,0.94120
422.81252,1.05502
421.32273,1.39289
419.83295,1.51213
418.34316,1.45454
416.85337,1.39698
415.36358,0.88606
413.87379,0.90251
412.38400,0.85038
410.89422,0.79828
409.40443,1.04847
407.91464,1.01357
406.42485,1.05158
404.93506,1.04460
403.44527,1.03765
401.95548,0.97713
400.46570,0.89949
398.97591,0.88082
397.48612,0.86218
395.99633,0.86822
394.50654,0.89358
393.01675,0.88788
391.52697,0.88221
390.03718,0.73186
388.54739,0.84307
387.05760,0.82140
385.56781,0.79975
384.07802,0.67952
382.58824,0.63434
381.09845,0.61277
379.60866,0.59123
378.11887,0.62973
376.62908,0.61896
375.13929,0.55676
373.64950,0.49459
372.15972,0.51176
370.66993,0.44750
369.18014,0.42614
367.69035,0.40480
366.20056,0.36420
364.71077,0.33434
363.22099,0.30129
361.73120,0.26827
360.24141,0.18061
358.75162,0.19372
357.26183,0.23795
355.77204,0.28220
354.28225,0.15177
352.79247,0.20786
351.30268,0.15358
349.81289,0.09933
348.32310,0.25411
346.83331,0.10237
345.34352,0.09428
343.85374,0.08622
342.36395,0.12963
340.87416,0.15592
339.38437,0.12972
337.89458,0.10354
336.40479,0.11919
334.91501,0.13272
333.42522,0.06803
331.93543,0.00337
330.44564,0.09165
328.95585,0.02776
327.46606,0.03035
325.97627,0.03297
324.48649,0.07634
322.99670,0.12616
321.50691,0.15458
320.01712,0.18302
318.52733,0.05929
317.03754,0.06849
315.54776,0.03592
314.05797,0.00337
312.56818,0.08830
311.07839,0.04249
309.58860,0.04279
308.09881,0.04313
306.60902,0.11958
305.11924,0.08460
303.62945,0.09572
302.13966,0.10688
300.64987,0.00337
299.16008,0.00337
