1778.52000,0.06452
1777.03021,0.01016
1775.54042,0.04547
1774.05063,0.06159
1772.56085,0.03080
1771.07106,0.08326
1769.58127,0.11867
1768.09148,0.04528
1766.60169,0.07861
1765.11190,0.08210
1763.62212,0.04720
1762.13233,0.08276
1760.64254,0.11407
1759.15275,0.12194
1757.66296,0.03380
1756.17317,0.06092
1754.68339,0.07954
1753.19360,0.01069
1751.70381,0.01016
1750.21402,0.06649
1748.72423,0.08443
1747.23444,0.07039
1745.74465,0.03931
1744.25487,0.08081
1742.76508,0.10740
1741.27529,0.06145
1739.78550,0.01981
1738.29571,0.07279
1736.80592,0.07457
1735.31614,0.08493
1733.82635,0.06543
1732.33656,0.06303
1730.84677,0.06493
1729.35698,0.01137
1727.86719,0.04806
1726.37740,0.06770
1724.88762,0.02976
1723.39783,0.06226
1721.90804,0.03717
1720.41825,0.02065
1718.92846,0.04897
1717.43867,0.12213
1715.94889,0.06301
1714.45910,0.08928
1712.96931,0.07076
1711.47952,0.06294
1709.98973,0.07008
1708.49994,0.05165
1707.01016,0.05458
1705.52037,0.05754
1704.03058,0.10107
1702.54079,0.13183
1701.05100,0.02390
1699.56121,0.06325
1698.07142,0.06848
1696.58164,0.08015
1695.09185,0.09397
1693.60206,0.15264
1692.11227,0.05981
1690.62248,0.09293
1689.13269,0.01510
1687.64291,0.07388
1686.15312,0.09427
1684.66333,0.08268
1683.17354,0.02203
1681.68375,0.11506
1680.19396,0.10356
1678.70417,0.14329
1677.21439,0.10196
1675.72460,0.07773
1674.23481,0.07701
1672.74502,0.03576
1671.25523,0.05430
1669.76544,0.12408
1668.27566,0.15120
1666.78587,0.05885
1665.29608,0.07536
1663.80629,0.05349
1662.31650,0.06152
1660.82671,0.12506
1659.33693,0.10114
1657.84714,0.06017
1656.35735,0.10459
1654.86756,0.07435
1653.37777,0.08041
1651.88798,0.12492
1650.39819,0.07342
1648.90841,0.11371
1647.41862,0.07933
1645.92883,0.05886
1644.43904,0.03841
1642.94925,0.08095
1641.45946,0.04242
1639.96968,0.08928
1638.47989,0.10202
1636.99010,0.13400
1635.50031,0.05717
1634.01052,0.11054
1632.52073,0.06150
1631.03094,0.11066
1629.54116,0.09583
1628.05137,0.12584
1626.56158,0.11533
1625.07179,0.12618
1623.58200,0.11573
1622.09221,0.09463
1620.60243,0.05862
1619.11264,0.03545
1617.62285,0.01016
1616.13306,0.10986
1614.64327,0.06233
1613.15348,0.10446
1611.66370,0.10180
1610.17391,0.08210
1608.68412,0.05602
1607.19433,0.07906
1605.70454,0.06371
1604.21475,0.08573
1602.72496,0.10778
1601.23518,0.11385
1599.74539,0.07940
1598.25560,0.07700
1596.76581,0.06181
1595.27602,0.07013
1593.78623,0.09128
1592.29645,0.05910
1590.80666,0.01842
1589.31687,0.07593
1587.82708,0.12280
1586.33729,0.06086
1584.84750,0.05870
1583.35771,0.04377
1581.86793,0.03099
1580.37814,0.08654
1578.88835,0.03967
1577.39856,0.05900
1575.90877,0.08474
1574.41898,0.01022
1572.92920,0.06590
1571.43941,0.04479
1569.94962,0.04504
1568.45983,0.04532
1566.97004,0.04776
1565.48025,0.08224
1563.99047,0.05699
1562.50068,0.07873
1561.01089,0.05354
1559.52110,0.04118
1558.03131,0.03738
1556.54152,0.04642
1555.05173,0.00000
1553.56195,0.07371
1552.07216,0.04716
1550.58237,0.08038
1549.09258,0.09228
1547.60279,0.24934
1546.11300,0.34026
1544.62322,0.35012
1543.13343,0.26824
1541.64364,0.10743
1540.15385,0.09390
1538.66406,0.08039
1537.17427,0.10106
1535.68448,0.08547
1534.19470,0.01016
1532.70491,0.04696
1531.21512,0.02190
1529.72533,0.15265
1528.23554,0.02947
1526.74575,0.05571
1525.25597,0.07984
1523.76618,0.12747
1522.27639,0.06416
1520.78660,0.04783
1519.29681,0.01232
1517.80702,0.03658
1516.31724,0.02887
1514.82745,0.02118
1513.33766,0.01566
1511.84787,0.01016
1510.35808,0.04468
1508.86829,0.06428
1507.37850,0.07111
1505.88872,0.01822
1504.39893,0.01016
1502.90914,0.02084
1501.41935,0.05289
1499.92956,0.01454
1498.43977,0.05517
1496.94999,0.05316
1495.46020,0.07464
1493.97041,0.06841
1492.48062,0.08355
1490.99083,0.04110
1489.50104,0.10965
1488.01125,0.11633
1486.52147,0.12305
1485.03168,0.08924
1483.54189,0.19418
1482.05210,0.17323
1480.56231,0.18219
1479.07252,0.19331
1477.58274,0.20873
1476.09295,0.25192
1474.60316,0.23324
1473.11337,0.35758
1471.62358,0.28134
1470.13379,0.29050
1468.64401,0.25486
1467.15422,0.28114
1465.66443,0.25837
1464.17464,0.23562
1462.68485,0.22143
1461.19506,0.22649
1459.70527,0.17394
1458.21549,0.16625
1456.72570,0.16711
1455.23591,0.12106
1453.74612,0.08143
1452.25633,0.20402
1450.76654,0.13884
1449.27676,0.09290
1447.78697,0.06192
1446.29718,0.09926
1444.80739,0.11635
1443.31760,0.13347
1441.82781,0.08339
1440.33802,0.12084
1438.84824,0.11564
1437.35845,0.01016
1435.86866,0.05945
1434.37887,0.07889
1432.88908,0.05568
1431.39929,0.06664
1429.90951,0.11605
1428.41972,0.12493
1426.92993,0.17652
1425.44014,0.11717
1423.95035,0.11119
1422.46056,0.10525
1420.97078,0.15482
1419.48099,0.20654
1417.99120,0.20282
1416.50141,0.18418
1415.01162,0.20184
1413.52183,0.17899
1412.03204,0.13483
1410.54226,0.20593
1409.05247,0.17249
1407.56268,0.22871
1406.07289,0.18252
1404.58310,0.20785
1403.09331,0.23321
1401.60353,0.20418
1400.11374,0.19225
1398.62395,0.29985
1397.13416,0.27730
1395.64437,0.31880
1394.15458,0.35607
1392.66479,0.33147
1391.17501,0.32397
1389.68522,0.35065
1388.19543,0.28985
1386.70564,0.29204
1385.21585,0.29426
1383.72606,0.30397
1382.23628,0.26036
1380.74649,0.36616
1379.25670,0.31193
1377.76691,0.31962
1376.27712,0.33374
1374.78733,0.43539
1373.29755,0.42182
1371.80776,0.54699
1370.31797,0.72981
1368.82818,0.79742
1367.33839,0.86506
1365.84860,1.16747
1364.35881,1.21382
1362.86903,1.37971
1361.37924,1.37490
1359.88945,1.32530
1358.39966,1.35896
1356.90987,1.30302
1355.42008,1.15107
1353.93030,1.22963
1352.44051,1.19724
1350.95072,1.16488
1349.46093,1.02158
1347.97114,0.74172
1346.48135,0.60488
1344.99156,0.41471
1343.50178,0.34194
1342.01199,0.31402
1340.52220,0.30533
1339.03241,0.32654
1337.54262,0.23681
1336.05283,0.24955
1334.56305,0.26231
1333.07326,0.23242
1331.58347,0.20255
1330.09368,0.16845
1328.60389,0.18132
1327.11410,0.18355
1325.62432,0.09617
1324.13453,0.08779
1322.64474,0.04955
1321.15495,0.08817
1319.66516,0.07453
1318.17537,0.06093
1316.68558,0.12950
1315.19580,0.11702
1313.70601,0.06401
1312.21622,0.07292
1310.72643,0.03277
1309.23664,0.08442
1307.74685,0.01658
1306.25707,0.04694
1304.76728,0.04852
1303.27749,0.05012
1301.78770,0.08484
1300.29791,0.05982
1298.80812,0.11593
1297.31834,0.04615
1295.82855,0.08097
1294.33876,0.12649
1292.84897,0.03546
1291.35918,0.07037
1289.86939,0.08609
1288.37960,0.10185
1286.88982,0.05787
1285.40003,0.05448
1283.91024,0.13007
1282.42045,0.09898
1280.93066,0.06579
1279.44087,0.08598
1277.95109,0.01016
1276.46130,0.10869
1274.97151,0.09840
1273.48172,0.08814
1271.99193,0.03737
1270.50214,0.07411
1269.01235,0.06181
1267.52257,0.11995
1266.03278,0.10983
1264.54299,0.12321
1263.05320,0.06833
1261.56341,0.06684
1260.07362,0.06536
1258.58384,0.10873
1257.09405,0.06890
1255.60426,0.06965
1254.11447,0.12164
1252.62468,0.10537
1251.13489,0.01016
1249.64511,0.12301
1248.15532,0.10357
1246.66553,0.08416
1245.17574,0.06478
1243.68595,0.08597
1242.19616,0.05384
1240.70637,0.04094
1239.21659,0.03234
1237.72680,0.03657
1236.23701,0.10271
1234.74722,0.04725
1233.25743,0.04302
1231.76764,0.03883
1230.27786,0.02612
1228.78807,0.06040
1227.29828,0.08403
1225.80849,0.01379
1224.31870,0.08016
1222.82891,0.03771
1221.33912,0.04438
1219.84934,0.05321
1218.35955,0.06207
1216.86976,0.06029
1215.37997,0.10548
1213.89018,0.12296
1212.40039,0.07004
1210.91061,0.10891
1209.42082,0.06886
1207.93103,0.03950
1206.44124,0.01016
1204.95145,0.04788
1203.46166,0.01733
1201.97188,0.03162
1200.48209,0.06515
1198.99230,0.03896
1197.50251,0.07681
1196.01272,0.06988
1194.52293,0.04376
1193.03314,0.01768
1191.54336,0.06418
1190.05357,0.03388
1188.56378,0.05483
1187.07399,0.05232
1185.58420,0.04772
1184.09441,0.08796
1182.60463,0.07914
1181.11484,0.07034
1179.62505,0.04878
1178.13526,0.01016
1176.64547,0.02728
1175.15568,0.05510
1173.66589,0.17258
1172.17611,0.17057
1170.68632,0.14832
1169.19653,0.12610
1167.70674,0.11138
1166.21695,0.04333
1164.72716,0.03079
1163.23738,0.03109
1161.74759,0.13171
1160.25780,0.06804
1158.76801,0.06736
1157.27822,0.06670
1155.78843,0.04152
1154.29865,0.10174
1152.80886,0.13638
1151.31907,0.11555
1149.82928,0.10116
1148.33949,0.10174
1146.84970,0.12581
1145.35991,0.14991
1143.87013,0.10789
1142.38034,0.07870
1140.89055,0.09435
1139.40076,0.19752
1137.91097,0.13213
1136.42118,0.12226
1134.93140,0.12201
1133.44161,0.12180
1131.95182,0.11414
1130.46203,0.22175
1128.97224,0.18214
1127.48245,0.15749
1125.99266,0.17342
1124.50288,0.18937
1123.01309,0.18828
1121.52330,0.18722
1120.03351,0.22887
1118.54372,0.20225
1117.05393,0.23115
1115.56415,0.26861
1114.07436,0.25915
1112.58457,0.25506
1111.09478,0.25099
1109.60499,0.27362
1108.11520,0.41792
1106.62542,0.34885
1105.13563,0.37583
1103.64584,0.47967
1102.15605,0.42989
1100.66626,0.44735
1099.17647,0.46485
1097.68668,0.46423
1096.19690,0.55754
1094.70711,0.52283
1093.21732,0.52229
1091.72753,0.63489
1090.23774,0.60026
1088.74795,0.56567
1087.25817,0.62286
1085.76838,0.67795
1084.27859,0.68398
1082.78880,0.74980
1081.29901,0.65345
1079.80922,0.75346
1078.31943,0.73400
1076.82965,0.71456
1075.33986,0.64393
1073.85007,0.66723
1072.36028,0.62014
1070.87049,0.66483
1069.38070,0.50042
1067.89092,0.51956
1066.40113,0.53873
1064.91134,0.51951
1063.42155,0.49179
1061.93176,0.46409
1060.44197,0.42362
1058.95219,0.44079
1057.46240,0.39184
1055.97261,0.34291
1054.48282,0.35163
1052.99303,0.40092
1051.50324,0.28806
1050.01345,0.30967
1048.52367,0.32704
1047.03388,0.31669
1045.54409,0.30637
1044.05430,0.30461
1042.56451,0.18978
1041.07472,0.17741
1039.58494,0.21842
1038.09515,0.14421
1036.60536,0.11912
1035.11557,0.09406
1033.62578,0.13731
1032.13599,0.14858
1030.64620,0.11933
1029.15642,0.17761
1027.66663,0.19856
1026.17684,0.21955
1024.68705,0.18828
1023.19726,0.23172
1021.70747,0.29440
1020.21769,0.24187
1018.72790,0.30034
1017.23811,0.31509
1015.74832,0.32987
1014.25853,0.39269
1012.76874,0.51102
1011.27896,0.51628
1009.78917,0.63893
1008.29938,0.60797
1006.80959,0.71681
1005.31980,0.82568
1003.83001,0.87588
1002.34022,0.97307
1000.85044,1.18552
999.36065,1.30411
997.87086,1.41418
996.38107,1.52428
994.89128,1.63868
993.40149,1.83633
991.91171,1.94012
990.42192,1.88387
988.93213,1.97490
987.44234,1.95073
985.95255,1.92658
984.46276,1.97074
982.97297,2.00000
981.48319,1.95032
979.99340,1.78757
978.50361,1.80091
977.01382,1.81427
975.52403,1.79458
974.03424,1.70449
972.54446,1.68700
971.05467,1.60977
969.56488,1.65848
968.07509,1.55464
966.58530,1.45082
965.09551,1.38224
963.60573,1.37558
962.11594,1.37748
960.62615,1.25350
959.13636,1.19251
957.64657,1.13154
956.15678,1.10154
954.66699,1.13132
953.17721,1.06083
951.68742,0.98183
950.19763,0.95728
948.70784,0.93275
947.21805,0.87945
945.72826,0.88379
944.23848,0.90096
942.74869,0.79225
941.25890,0.79454
939.76911,0.76911
938.27932,0.74372
936.78953,0.78664
935.29974,0.76343
933.80996,0.75945
932.32017,0.75764
930.83038,0.78253
929.34059,0.80745
927.85080,0.90389
926.36101,0.81682
924.87123,0.77033
923.38144,0.82844
921.89165,0.85990
920.40186,0.89139
918.91207,0.90263
917.42228,0.87549
915.93250,1.00629
914.44271,0.95146
912.95292,0.97455
911.46313,0.99766
909.97334,1.10724
908.48355,1.11014
906.99376,1.19202
905.50398,1.18004
904.01419,1.23210
902.52440,1.28420
901.03461,1.36406
899.54482,1.54212
898.05503,1.46198
896.56525,1.46083
895.07546,1.45011
893.58567,1.43941
892.09588,1.43622
890.60609,1.39036
889.11630,1.22503
887.62651,1.20911
886.13673,1.20816
884.64694,1.20723
883.15715,1.19993
881.66736,1.17132
880.17757,1.13846
878.68778,1.07683
877.19800,1.01522
875.70821,1.01446
874.21842,0.88782
872.72863,0.82949
871.23884,0.76693
869.74905,0.71400
868.25927,0.66109
866.76948,0.59007
865.27969,0.61511
863.78990,0.65299
862.30011,0.57778
860.81032,0.56983
859.32053,0.56191
857.83075,0.44624
856.34096,0.52907
854.85117,0.40492
853.36138,0.41525
851.87159,0.38292
850.38180,0.35062
848.89202,0.30341
847.40223,0.24982
845.91244,0.19627
844.42265,0.19075
842.93286,0.18527
841.44307,0.10618
839.95329,0.10182
838.46350,0.10389
836.97371,0.14226
835.48392,0.11450
833.99413,0.08678
832.50434,0.12950
831.01455,0.14238
829.52477,0.16382
828.03498,0.07645
826.54519,0.13102
825.05540,0.18562
823.56561,0.08980
822.07582,0.14979
820.58604,0.08390
819.09625,0.08419
817.60646,0.08451
816.11667,0.01016
814.62688,0.08081
813.13709,0.05544
811.64730,0.05571
810.15752,0.06348
808.66773,0.07128
807.17794,0.05457
805.68815,0.03574
804.19836,0.06176
802.70857,0.08781
801.21879,0.11389
799.72900,0.01835
798.23921,0.13624
796.74942,0.16881
795.25963,0.21633
793.76984,0.26389
792.28006,0.28586
790.79027,0.34841
789.30048,0.27654
787.81069,0.35835
786.32090,0.34842
784.83111,0.33853
783.34132,0.26036
781.85154,0.34442
780.36175,0.33247
778.87196,0.36430
777.38217,0.39615
775.89238,0.47178
774.40259,0.44500
772.91281,0.45027
771.42302,0.44809
769.93323,0.44593
768.44344,0.43420
766.95365,0.37556
765.46386,0.36175
763.97407,0.35010
762.48429,0.34916
760.99450,0.34824
759.50471,0.26839
758.01492,0.18856
756.52513,0.23894
755.03534,0.19545
753.54556,0.15199
752.05577,0.16191
750.56598,0.11637
749.07619,0.14768
747.58640,0.12887
746.09661,0.11009
744.60683,0.13935
743.11704,0.12809
741.62725,0.01016
740.13746,0.07831
738.64767,0.14650
737.15788,0.16562
735.66809,0.06313
734.17831,0.05670
732.68852,0.07378
731.19873,0.09088
729.70894,0.12081
728.21915,0.06541
726.72936,0.10394
725.23958,0.05926
723.74979,0.04236
722.26000,0.02548
720.77021,0.07052
719.28042,0.12199
717.79063,0.14147
716.30084,0.12044
714.81106,0.09943
713.32127,0.01016
711.83148,0.13560
710.34169,0.04979
708.85190,0.08458
707.36211,0.11940
705.87233,0.12971
704.38254,0.17206
702.89275,0.11840
701.40296,0.12665
699.91317,0.13494
698.42338,0.14538
696.93360,0.37566
695.44381,0.29867
693.95402,0.31773
692.46423,0.33683
690.97444,0.20870
689.48465,0.08700
687.99486,0.04429
686.50508,0.02721
685.01529,0.01016
683.52550,0.11920
682.03571,0.05754
680.54592,0.09407
679.05613,0.07728
677.56635,0.06052
676.07656,0.07153
674.58677,0.08470
673.09698,0.03175
671.60719,0.07485
670.11740,0.11798
668.62761,0.10565
667.13783,0.08055
665.64804,0.05014
664.15825,0.01975
662.66846,0.07369
661.17867,0.11485
659.68888,0.03867
658.19910,0.02440
656.70931,0.01016
655.21952,0.03248
653.72973,0.10390
652.23994,0.13481
650.75015,0.12520
649.26037,0.11561
647.77058,0.12739
646.28079,0.19042
644.79100,0.21933
643.30121,0.19919
641.81142,0.17907
640.32163,0.09069
638.83185,0.05996
637.34206,0.01432
635.85227,0.06367
634.36248,0.11305
632.87269,0.05681
631.38290,0.03903
629.89312,0.06181
628.40333,0.04621
626.91354,0.03064
625.42375,0.02577
623.93396,0.14896
622.44417,0.11533
620.95438,0.08173
619.46460,0.13886
617.97481,0.05516
616.48502,0.12515
614.99523,0.10446
613.50544,0.08380
612.01565,0.08131
610.52587,0.09805
609.03608,0.06148
607.54629,0.07294
606.05650,0.08443
604.56671,0.15037
603.07692,0.16085
601.58714,0.15001
600.09735,0.13921
598.60756,0.09642
597.11777,0.02165
595.62798,0.02800
594.13819,0.04398
592.64840,0.05999
591.15862,0.03868
589.66883,0.10703
588.17904,0.05163
586.68925,0.10083
585.19946,0.15005
583.70967,0.18437
582.21989,0.28060
580.73010,0.24134
579.24031,0.20211
577.75052,0.33257
576.26073,0.25392
574.77094,0.22651
573.28115,0.28023
571.79137,0.33397
570.30158,0.35359
568.81179,0.44580
567.32200,0.47509
565.83221,0.50440
564.34242,0.52627
562.85264,0.59725
561.36285,0.61918
559.87306,0.70409
558.38327,0.78902
556.89348,0.66591
555.40369,0.77972
553.91391,0.83806
552.42412,0.89643
550.93433,0.83746
549.44454,0.86600
547.95475,0.88178
546.46496,0.90825
544.97517,0.93475
543.48539,0.92286
541.99560,0.98996
540.50581,1.01334
539.01602,1.03675
537.52623,1.05698
536.03644,1.10499
534.54666,1.00790
533.05687,0.98874
531.56708,0.96961
530.07729,0.95157
528.58750,0.89087
527.09771,0.84088
525.60792,0.79091
524.11814,0.78792
522.62835,0.84258
521.13856,0.73294
519.64877,0.66387
518.15898,0.59484
516.66919,0.55784
515.17941,0.50593
513.68962,0.49460
512.19983,0.48330
510.71004,0.50403
509.22025,0.55253
507.73046,0.42180
506.24068,0.37113
504.75089,0.32048
503.26110,0.34349
501.77131,0.22781
500.28152,0.26260
498.79173,0.29743
497.30194,0.25866
495.81216,0.20711
494.32237,0.22388
492.83258,0.24068
491.34279,0.24897
489.85300,0.23594
488.36321,0.16960
486.87343,0.15876
485.38364,0.14796
483.89385,0.19906
482.40406,0.22886
480.91427,0.17119
479.42448,0.11354
477.93469,0.13915
476.44491,0.10290
474.95512,0.14031
473.46533,0.17774
471.97554,0.14371
470.48575,0.08196
468.99596,0.16322
467.50618,0.18262
466.01639,0.20205
464.52660,0.11054
463.03681,0.08521
461.54702,0.11006
460.05723,0.13493
458.56745,0.20999
457.07766,0.16556
455.58787,0.17985
454.09808,0.19417
452.60829,0.29494
451.11850,0.21221
449.62871,0.23728
448.13893,0.26238
446.64914,0.34406
445.15935,0.40229
443.66956,0.42000
442.17977,0.42387
440.68998,0.42776
439.20020,0.49678
437.71041,0.58075
436.22062,0.63062
434.73083,0.68050
433.24104,0.66640
431.75125,0.85932
430.26146,0.86982
428.77168,0.88033
427.28189,0.86421
425.79210,0.89719
424.30231,1.04650
422.81252,1.19585
421.32273,1.61945
419.83295,1.63973
418.34316,1.58536
416.85337,1.53101
415.36358,1.06268
413.87379,0.92943
412.38400,0.90931
410.89422,0.88922
409.40443,1.02281
407.91464,1.08813
406.42485,1.15348
404.93506,1.09936
403.44527,1.04526
401.95548,0.96985
400.46570,0.82831
398.97591,0.82444
397.48612,0.82060
395.99633,0.89896
394.50654,0.94959
393.01675,0.91703
391.52697,0.88449
390.03718,0.86479
388.54739,0.87072
387.05760,0.86387
385.56781,0.85706
384.07802,0.79478
382.58824,0.76881
381.09845,0.66071
379.60866,0.55264
378.11887,0.67400
376.62908,0.56919
375.13929,0.52735
373.64950,0.48554
372.15972,0.44270
370.66993,0.29104
369.18014,0.34108
367.69035,0.39115
366.20056,0.45938
364.71077,0.42308
363.22099,0.34625
361.73120,0.26945
360.24141,0.27591
358.75162,0.20344
357.26183,0.21422
355.77204,0.22503
354.28225,0.16331
352.79247,0.11869
351.30268,0.13598
349.81289,0.15330
348.32310,0.10023
346.83331,0.13041
345.34352,0.10834
343.85374,0.08629
342.36395,0.13790
340.87416,0.14258
339.38437,0.11955
337.89458,0.09655
336.40479,0.16747
334.91501,0.12958
333.42522,0.12907
331.93543,0.12859
330.44564,0.05237
328.95585,0.03167
327.46606,0.05166
325.97627,0.07169
324.48649,0.11522
322.99670,0.11396
321.50691,0.11699
320.01712,0.12006
318.52733,0.13168
317.03754,0.07718
315.54776,0.08780
314.05797,0.09844
312.56818,0.03976
311.07839,0.13475
309.58860,0.10173
308.09881,0.06874
306.60902,0.01016
305.11924,0.05919
303.62945,0.05596
302.13966,0.05276
300.64987,0.05279
299.16008,0.01016
