1778.52000,0.03677
1777.03021,0.01113
1775.54042,0.01677
1774.05063,0.00369
1772.56085,0.00000
1771.07106,0.01196
1769.58127,0.04739
1768.09148,0.06253
1766.60169,0.02770
1765.11190,0.02571
1763.62212,0.00656
1762.13233,0.01868
1760.64254,0.01989
1759.15275,0.02894
1757.66296,0.03645
1756.17317,0.03150
1754.68339,0.05937
1753.19360,0.01853
1751.70381,0.03396
1750.21402,0.04004
1748.72423,0.04771
1747.23444,0.02260
1745.74465,0.02876
1744.25487,0.04745
1742.76508,0.03491
1741.27529,0.00678
1739.78550,0.04898
1738.29571,0.03652
1736.80592,0.04753
1735.31614,0.07730
1733.82635,0.05243
1732.33656,0.03695
1730.84677,0.04650
1729.35698,0.04983
1727.86719,0.06880
1726.37740,0.00656
1724.88762,0.02361
1723.39783,0.03288
1721.90804,0.03124
1720.41825,0.01713
1718.92846,0.01867
1717.43867,0.02023
1715.94889,0.06400
1714.45910,0.01562
1712.96931,0.03601
1711.47952,0.09391
1709.98973,0.00656
1708.49994,0.07399
1707.01016,0.07036
1705.52037,0.06675
1704.03058,0.07021
1702.54079,0.05025
1701.05100,0.07563
1699.56121,0.09322
1698.07142,0.08272
1696.58164,0.04881
1695.09185,0.08835
1693.60206,0.05918
1692.11227,0.06597
1690.62248,0.05247
1689.13269,0.08430
1687.64291,0.06618
1686.15312,0.09494
1684.66333,0.00656
1683.17354,0.03187
1681.68375,0.02127
1680.19396,0.02476
1678.70417,0.11888
1677.21439,0.06149
1675.72460,0.07130
1674.23481,0.04053
1672.74502,0.03946
1671.25523,0.04779
1669.76544,0.05615
1668.27566,0.05828
1666.78587,0.09950
1665.29608,0.06419
1663.80629,0.08203
1662.31650,0.04521
1660.82671,0.11465
1659.33693,0.06539
1657.84714,0.08333
1656.35735,0.04194
1654.86756,0.05993
1653.37777,0.04202
1651.88798,0.07725
1650.39819,0.07969
1648.90841,0.04468
1647.41862,0.08311
1645.92883,0.05439
1644.43904,0.02570
1642.94925,0.06734
1641.45946,0.04339
1639.96968,0.03665
1638.47989,0.05024
1636.99010,0.06855
1635.50031,0.05876
1634.01052,0.08025
1632.52073,0.01427
1631.03094,0.09049
1629.54116,0.08237
1628.05137,0.11333
1626.56158,0.08027
1625.07179,0.06442
1623.58200,0.06577
1622.09221,0.02654
1620.60243,0.05295
1619.11264,0.02470
1617.62285,0.05429
1616.13306,0.04640
1614.64327,0.04480
1613.15348,0.06196
1611.66370,0.05572
1610.17391,0.07918
1608.68412,0.02925
1607.19433,0.01059
1605.70454,0.06538
1604.21475,0.04599
1602.72496,0.02662
1601.23518,0.05181
1599.74539,0.06765
1598.25560,0.07882
1596.76581,0.04004
1595.27602,0.02940
1593.78623,0.02659
1592.29645,0.05975
1590.80666,0.02263
1589.31687,0.02615
1587.82708,0.01252
1586.33729,0.02078
1584.84750,0.03688
1583.35771,0.01551
1581.86793,0.08009
1580.37814,0.06972
1578.88835,0.01093
1577.39856,0.06894
1575.90877,0.04887
1574.41898,0.06162
1572.92920,0.02129
1571.43941,0.00285
1569.94962,0.00988
1568.45983,0.01693
1566.97004,0.01619
1565.48025,0.01079
1563.99047,0.05385
1562.50068,0.03757
1561.01089,0.05256
1559.52110,0.02540
1558.03131,0.06700
1556.54152,0.01021
1555.05173,0.04537
1553.56195,0.02900
1552.07216,0.06578
1550.58237,0.04478
1549.09258,0.05817
1547.60279,0.07159
1546.11300,0.14753
1544.62322,0.16413
1543.13343,0.13076
1541.64364,0.06305
1540.15385,0.05317
1538.66406,0.04331
1537.17427,0.05379
1535.68448,0.00806
1534.19470,0.04359
1532.70491,0.02134
1531.21512,0.02255
1529.72533,0.05659
1528.23554,0.03286
1526.74575,0.05134
1525.25597,0.01985
1523.76618,0.02275
1522.27639,0.02256
1520.78660,0.01302
1519.29681,0.00506
1517.80702,0.01205
1516.31724,0.00656
1514.82745,0.03418
1513.33766,0.02510
1511.84787,0.01606
1510.35808,0.02657
1508.86829,0.02148
1507.37850,0.00705
1505.88872,0.01295
1504.39893,0.05793
1502.90914,0.02639
1501.41935,0.04331
1499.92956,0.05087
1498.43977,0.05691
1496.94999,0.02860
1495.46020,0.00656
1493.97041,0.05736
1492.48062,0.03633
1490.99083,0.06999
1489.50104,0.09744
1488.01125,0.11163
1486.52147,0.12585
1485.03168,0.12057
1483.54189,0.14343
1482.05210,0.13195
1480.56231,0.16112
1479.07252,0.19499
1477.58274,0.24452
1476.09295,0.23315
1474.60316,0.24836
1473.11337,0.24641
1471.62358,0.21637
1470.13379,0.28008
1468.64401,0.20948
1467.15422,0.21544
1465.66443,0.20503
1464.17464,0.19465
1462.68485,0.18508
1461.19506,0.16615
1459.70527,0.11758
1458.21549,0.10652
1456.72570,0.08455
1455.23591,0.06573
1453.74612,0.11880
1452.25633,0.09379
1450.76654,0.04380
1449.27676,0.03759
1447.78697,0.02671
1446.29718,0.08147
1444.80739,0.07924
1443.31760,0.07704
1441.82781,0.07564
1440.33802,0.05552
1438.84824,0.03543
1437.35845,0.05911
1435.86866,0.02344
1434.37887,0.02062
1432.88908,0.02719
1431.39929,0.03066
1429.90951,0.04509
1428.41972,0.06892
1426.92993,0.06779
1425.44014,0.08230
1423.95035,0.08122
1422.46056,0.08016
1420.97078,0.10413
1419.48099,0.08906
1417.99120,0.14432
1416.50141,0.16524
1415.01162,0.13307
1413.52183,0.17279
1412.03204,0.08756
1410.54226,0.09764
1409.05247,0.15775
1407.56268,0.17258
1406.07289,0.17649
1404.58310,0.17731
1403.09331,0.17816
1401.60353,0.20559
1400.11374,0.18149
1398.62395,0.20116
1397.13416,0.24898
1395.64437,0.21559
1394.15458,0.20566
1392.66479,0.21762
1391.17501,0.19993
1389.68522,0.21663
1388.19543,0.17556
1386.70564,0.17904
1385.21585,0.18254
1383.72606,0.21185
1382.23628,0.18807
1380.74649,0.21586
1379.25670,0.21713
1377.76691,0.19811
1376.27712,0.27910
1374.78733,0.32419
1373.29755,0.33493
1371.80776,0.46911
1370.31797,0.56427
1368.82818,0.62977
1367.33839,0.69529
1365.84860,0.85145
1364.35881,0.83423
1362.86903,0.92796
1361.37924,0.97640
1359.88945,0.96551
1358.39966,0.93746
1356.90987,0.91100
1355.42008,0.87051
1353.93030,0.82535
1352.44051,0.79272
1350.95072,0.76011
1349.46093,0.70410
1347.97114,0.55751
1346.48135,0.40313
1344.99156,0.36438
1343.50178,0.32097
1342.01199,0.27134
1340.52220,0.24361
1339.03241,0.22527
1337.54262,0.20852
1336.05283,0.20352
1334.56305,0.19854
1333.07326,0.19905
1331.58347,0.15273
1330.09368,0.16267
1328.60389,0.14140
1327.11410,0.09359
1325.62432,0.13485
1324.13453,0.11365
1322.64474,0.00656
1321.15495,0.05489
1319.66516,0.03607
1318.17537,0.01728
1316.68558,0.07350
1315.19580,0.05008
1313.70601,0.02668
1312.21622,0.04861
1310.72643,0.03932
1309.23664,0.01600
1307.74685,0.04738
1306.25707,0.10222
1304.76728,0.07351
1303.27749,0.04483
1301.78770,0.04820
1300.29791,0.09065
1298.80812,0.05032
1297.31834,0.03659
1295.82855,0.05412
1294.33876,0.03887
1292.84897,0.03771
1291.35918,0.07094
1289.86939,0.06749
1288.37960,0.06406
1286.88982,0.03957
1285.40003,0.00886
1283.91024,0.06409
1282.42045,0.03343
1280.93066,0.02467
1279.44087,0.00656
1277.95109,0.06910
1276.46130,0.02857
1274.97151,0.04664
1273.48172,0.06474
1271.99193,0.05084
1270.50214,0.06821
1269.01235,0.10591
1267.52257,0.05616
1266.03278,0.10329
1264.54299,0.10046
1263.05320,0.11640
1261.56341,0.10815
1260.07362,0.09993
1258.58384,0.10969
1257.09405,0.09918
1255.60426,0.12306
1254.11447,0.08292
1252.62468,0.10685
1251.13489,0.08863
1249.64511,0.04232
1248.15532,0.03977
1246.66553,0.05131
1245.17574,0.06288
1243.68595,0.03542
1242.19616,0.06266
1240.70637,0.01963
1239.21659,0.05161
1237.72680,0.04612
1236.23701,0.03441
1234.74722,0.01023
1233.25743,0.03763
1231.76764,0.06506
1230.27786,0.08626
1228.78807,0.11530
1227.29828,0.04282
1225.80849,0.06254
1224.31870,0.07135
1222.82891,0.01770
1221.33912,0.03749
1219.84934,0.04326
1218.35955,0.04905
1216.86976,0.07673
1215.37997,0.06227
1213.89018,0.10406
1212.40039,0.08809
1210.91061,0.06120
1209.42082,0.10933
1207.93103,0.09968
1206.44124,0.09006
1204.95145,0.00548
1203.46166,0.13225
1201.97188,0.06533
1200.48209,0.08124
1198.99230,0.00656
1197.50251,0.04846
1196.01272,0.03571
1194.52293,0.05345
1193.03314,0.07122
1191.54336,0.02106
1190.05357,0.05059
1188.56378,0.04891
1187.07399,0.06288
1185.58420,0.04250
1184.09441,0.06589
1182.60463,0.07291
1181.11484,0.07995
1179.62505,0.00656
1178.13526,0.04787
1176.64547,0.05014
1175.15568,0.03526
1173.66589,0.06571
1172.17611,0.07744
1170.68632,0.06655
1169.19653,0.05568
1167.70674,0.06749
1166.21695,0.04027
1164.72716,0.05681
1163.23738,0.02652
1161.74759,0.04312
1160.25780,0.06912
1158.76801,0.04984
1157.27822,0.03059
1155.78843,0.05510
1154.29865,0.07652
1152.80886,0.07453
1151.31907,0.10381
1149.82928,0.12999
1148.33949,0.07653
1146.84970,0.07855
1145.35991,0.08060
1143.87013,0.13032
1142.38034,0.12226
1140.89055,0.09549
1139.40076,0.10155
1137.91097,0.13575
1136.42118,0.11686
1134.93140,0.11285
1133.44161,0.10885
1131.95182,0.14785
1130.46203,0.07908
1128.97224,0.13375
1127.48245,0.08221
1125.99266,0.16974
1124.50288,0.15888
1123.01309,0.16053
1121.52330,0.16222
1120.03351,0.15456
1118.54372,0.15786
1117.05393,0.24867
1115.56415,0.23952
1114.07436,0.24446
1112.58457,0.24396
1111.09478,0.24349
1109.60499,0.29069
1108.11520,0.31917
1106.62542,0.39297
1105.13563,0.43713
1103.64584,0.40007
1102.15605,0.38491
1100.66626,0.43930
1099.17647,0.49371
1097.68668,0.50519
1096.19690,0.49326
1094.70711,0.56572
1093.21732,0.59602
1091.72753,0.66697
1090.23774,0.68717
1088.74795,0.70739
1087.25817,0.62689
1085.76838,0.66982
1084.27859,0.67684
1082.78880,0.66984
1081.29901,0.66754
1079.80922,0.74495
1078.31943,0.70990
1076.82965,0.67488
1075.33986,0.70550
1073.85007,0.66897
1072.36028,0.71057
1070.87049,0.60536
1069.38070,0.52516
1067.89092,0.55044
1066.40113,0.57575
1064.91134,0.54563
1063.42155,0.55146
1061.93176,0.52451
1060.44197,0.46478
1058.95219,0.42695
1057.46240,0.45398
1055.97261,0.48103
1054.48282,0.37142
1052.99303,0.28370
1051.50324,0.29130
1050.01345,0.33486
1048.52367,0.28784
1047.03388,0.28537
1045.54409,0.28293
1044.05430,0.29847
1042.56451,0.23437
1041.07472,0.18123
1039.58494,0.21248
1038.09515,0.15471
1036.60536,0.12899
1035.11557,0.10329
1033.62578,0.20494
1032.13599,0.19414
1030.64620,0.19899
1029.15642,0.18667
1027.66663,0.16736
1026.17684,0.14807
1024.68705,0.18739
1023.19726,0.25798
1021.70747,0.25986
1020.21769,0.26489
1018.72790,0.37617
1017.23811,0.36876
1015.74832,0.36137
1014.25853,0.44618
1012.76874,0.52789
1011.27896,0.52995
1009.78917,0.59296
1008.29938,0.68412
1006.80959,0.75969
1005.31980,0.83528
1003.83001,0.92183
1002.34022,1.10371
1000.85044,1.15907
999.36065,1.34099
997.87086,1.41906
996.38107,1.49715
994.89128,1.61666
993.40149,1.64872
991.91171,1.87140
990.42192,1.98162
988.93213,1.94971
987.44234,1.97484
985.95255,2.00000
984.46276,1.97754
982.97297,1.91136
981.48319,1.92957
979.99340,1.88844
978.50361,1.87234
977.01382,1.85626
975.52403,1.90738
974.03424,1.83979
972.54446,1.74256
971.05467,1.80469
969.56488,1.68876
968.07509,1.60879
966.58530,1.52884
965.09551,1.50828
963.60573,1.54087
962.11594,1.44225
960.62615,1.41865
959.13636,1.32399
957.64657,1.22936
956.15678,1.22302
954.66699,1.15422
953.17721,1.05576
951.68742,1.06512
950.19763,1.01280
948.70784,0.96050
947.21805,0.97931
945.72826,0.96378
944.23848,0.93266
942.74869,0.87188
941.25890,0.84861
939.76911,0.84725
938.27932,0.84591
936.78953,0.86022
935.29974,0.82144
933.80996,0.85611
932.32017,0.83769
930.83038,0.88178
929.34059,0.92590
927.85080,0.91850
926.36101,0.94861
924.87123,0.94907
923.38144,0.97924
921.89165,0.97038
920.40186,0.96154
918.91207,1.05584
917.42228,1.08767
915.93250,1.06642
914.44271,1.17485
912.95292,1.19114
911.46313,1.20746
909.97334,1.25504
908.48355,1.26985
906.99376,1.41278
905.50398,1.37296
904.01419,1.42769
902.52440,1.48243
901.03461,1.52237
899.54482,1.62950
898.05503,1.61950
896.56525,1.57359
895.07546,1.57847
893.58567,1.58339
892.09588,1.52194
890.60609,1.45582
889.11630,1.38349
887.62651,1.43459
886.13673,1.38886
884.64694,1.34317
883.15715,1.34436
881.66736,1.26122
880.17757,1.14842
878.68778,1.12392
877.19800,1.09944
875.70821,1.04452
874.21842,0.88809
872.72863,0.76293
871.23884,0.66435
869.74905,0.70874
868.25927,0.75315
866.76948,0.65778
865.27969,0.64991
863.78990,0.59521
862.30011,0.57958
860.81032,0.55227
859.32053,0.52498
857.83075,0.42351
856.34096,0.44392
854.85117,0.39562
853.36138,0.41140
851.87159,0.35456
850.38180,0.29774
848.89202,0.31047
847.40223,0.23575
845.91244,0.20323
844.42265,0.17151
842.93286,0.13983
841.44307,0.10895
839.95329,0.14214
838.46350,0.11132
836.97371,0.15550
835.48392,0.12316
833.99413,0.09085
832.50434,0.07107
831.01455,0.06536
829.52477,0.08000
828.03498,0.03373
826.54519,0.05154
825.05540,0.06938
823.56561,0.07787
822.07582,0.07545
820.58604,0.06525
819.09625,0.06522
817.60646,0.06522
816.11667,0.00667
814.62688,0.00656
813.13709,0.01285
811.64730,0.01917
810.15752,0.01380
808.66773,0.00846
807.17794,0.03204
805.68815,0.01659
804.19836,0.04804
802.70857,0.09435
801.21879,0.14069
799.72900,0.13004
798.23921,0.18346
796.74942,0.07912
795.25963,0.12791
793.76984,0.17672
792.28006,0.23494
790.79027,0.27911
789.30048,0.27802
787.81069,0.23945
786.32090,0.19544
784.83111,0.15146
783.34132,0.32856
781.85154,0.24480
780.36175,0.33134
778.87196,0.31324
777.38217,0.29517
775.89238,0.39585
774.40259,0.33877
772.91281,0.36608
771.42302,0.36686
769.93323,0.36766
768.44344,0.36225
766.95365,0.37248
765.46386,0.30775
763.97407,0.28835
762.48429,0.27835
760.99450,0.26837
759.50471,0.24437
758.01492,0.26100
756.52513,0.14175
755.03534,0.11861
753.54556,0.09549
752.05577,0.09504
750.56598,0.12587
749.07619,0.05362
747.58640,0.05638
746.09661,0.05916
744.60683,0.10884
743.11704,0.05700
741.62725,0.07705
740.13746,0.07994
738.64767,0.08286
737.15788,0.03269
735.66809,0.08409
734.17831,0.01991
732.68852,0.03465
731.19873,0.04941
729.70894,0.05249
728.21915,0.02434
726.72936,0.03059
725.23958,0.04000
723.74979,0.04630
722.26000,0.05263
720.77021,0.05898
719.28042,0.04506
717.79063,0.08896
716.30084,0.04775
714.81106,0.00656
713.32127,0.06170
711.83148,0.04031
710.34169,0.08456
708.85190,0.08041
707.36211,0.07629
705.87233,0.06438
704.38254,0.07125
702.89275,0.08283
701.40296,0.04522
699.91317,0.00764
698.42338,0.03961
696.93360,0.12315
695.44381,0.20672
693.95402,0.17706
692.46423,0.14742
690.97444,0.09828
689.48465,0.04292
687.99486,0.07507
686.50508,0.04319
685.01529,0.01134
683.52550,0.12012
682.03571,0.07270
680.54592,0.00656
679.05613,0.02386
677.56635,0.04118
676.07656,0.07649
674.58677,0.03372
673.09698,0.04409
671.60719,0.04199
670.11740,0.03992
668.62761,0.08630
667.13783,0.01242
665.64804,0.02214
664.15825,0.03189
662.66846,0.01588
661.17867,0.03584
659.68888,0.06519
658.19910,0.07973
656.70931,0.09429
655.21952,0.00656
653.72973,0.02433
652.23994,0.06712
650.75015,0.07167
649.26037,0.07624
647.77058,0.05037
646.28079,0.11045
644.79100,0.10807
643.30121,0.13071
641.81142,0.15338
640.32163,0.05266
638.83185,0.03945
637.34206,0.04501
635.85227,0.05060
634.36248,0.05621
632.87269,0.05248
631.38290,0.05033
629.89312,0.11539
628.40333,0.06096
626.91354,0.00656
625.42375,0.03966
623.93396,0.07592
622.44417,0.06611
620.95438,0.05633
619.46460,0.05205
617.97481,0.06029
616.48502,0.02793
614.99523,0.05888
613.50544,0.08985
612.01565,0.08413
610.52587,0.09562
609.03608,0.11027
607.54629,0.07573
606.05650,0.04122
604.56671,0.09187
603.07692,0.12224
601.58714,0.09250
600.09735,0.06278
598.60756,0.09791
597.11777,0.08465
595.62798,0.13702
594.13819,0.08944
592.64840,0.04189
591.15862,0.09434
589.66883,0.13432
588.17904,0.23837
586.68925,0.19327
585.19946,0.14819
583.70967,0.25857
582.21989,0.27525
580.73010,0.23650
579.24031,0.19777
577.75052,0.20359
576.26073,0.24381
574.77094,0.32779
573.28115,0.34385
571.79137,0.35993
570.30158,0.40494
568.81179,0.49684
567.32200,0.50128
565.83221,0.50575
564.34242,0.56961
562.85264,0.57413
561.36285,0.68335
559.87306,0.66683
558.38327,0.65034
556.89348,0.73464
555.40369,0.85646
553.91391,0.85020
552.42412,0.84397
550.93433,0.95025
549.44454,0.84253
547.95475,0.90355
546.46496,0.96304
544.97517,1.02255
543.48539,0.90087
541.99560,1.03074
540.50581,1.03722
539.01602,1.04372
537.52623,1.08305
536.03644,1.02244
534.54666,1.05558
533.05687,1.02469
531.56708,0.99383
530.07729,0.95831
528.58750,0.90720
527.09771,0.91860
525.60792,0.93003
524.11814,0.88836
522.62835,0.81392
521.13856,0.80980
519.64877,0.76666
518.15898,0.72354
516.66919,0.76012
515.17941,0.65300
513.68962,0.58652
512.19983,0.52007
510.71004,0.55988
509.22025,0.57160
507.73046,0.43024
506.24068,0.44201
504.75089,0.45380
503.26110,0.34846
501.77131,0.41498
500.28152,0.36670
498.79173,0.31846
497.30194,0.34132
495.81216,0.25797
494.32237,0.27854
492.83258,0.29914
491.34279,0.23305
489.85300,0.19981
488.36321,0.22282
486.87343,0.18494
485.38364,0.14708
483.89385,0.21861
482.40406,0.22767
480.91427,0.22191
479.42448,0.21619
477.93469,0.22220
476.44491,0.12670
474.95512,0.17573
473.46533,0.22479
471.97554,0.17154
470.48575,0.15270
468.99596,0.22448
467.50618,0.21818
466.01639,0.21191
464.52660,0.17754
463.03681,0.17914
461.54702,0.15654
460.05723,0.13397
458.56745,0.19813
457.07766,0.19514
455.58787,0.22107
454.09808,0.24704
452.60829,0.27849
451.11850,0.31622
449.62871,0.32508
448.13893,0.33397
446.64914,0.33585
445.15935,0.38930
443.66956,0.43029
442.17977,0.47052
440.68998,0.51078
439.20020,0.57528
437.71041,0.68199
436.22062,0.69108
434.73083,0.70020
433.24104,0.72731
431.75125,0.79819
430.26146,0.83550
428.77168,0.87285
427.28189,0.87194
425.79210,0.89606
424.30231,0.93895
422.81252,0.98187
421.32273,1.26070
419.83295,1.35835
418.34316,1.31308
416.85337,1.26784
415.36358,1.03125
413.87379,0.97434
412.38400,0.96745
410.89422,0.96059
409.40443,0.99437
407.91464,0.98443
406.42485,1.03545
404.93506,1.02869
403.44527,1.02195
401.95548,0.94807
400.46570,1.00075
398.97591,0.99410
397.48612,0.98747
395.99633,1.08554
394.50654,1.03990
393.01675,1.01305
391.52697,0.98621
390.03718,0.96566
388.54739,0.92169
387.05760,0.88244
385.56781,0.84322
384.07802,0.75715
382.58824,0.76484
381.09845,0.73039
379.60866,0.69595
378.11887,0.62093
376.62908,0.69590
375.13929,0.63030
373.64950,0.56473
372.15972,0.51012
370.66993,0.44772
369.18014,0.41894
367.69035,0.39018
366.20056,0.37161
364.71077,0.43742
363.22099,0.36109
361.73120,0.28479
360.24141,0.21946
358.75162,0.22288
357.26183,0.21149
355.77204,0.20013
354.28225,0.18333
352.79247,0.16343
351.30268,0.15527
349.81289,0.14713
348.32310,0.18667
346.83331,0.12782
345.34352,0.12992
343.85374,0.13205
342.36395,0.10452
340.87416,0.08483
339.38437,0.09484
337.89458,0.10488
336.40479,0.16650
334.91501,0.14848
333.42522,0.11330
331.93543,0.07814
330.44564,0.04301
328.95585,0.13289
327.46606,0.10720
325.97627,0.08154
324.48649,0.10901
322.99670,0.12089
321.50691,0.09609
320.01712,0.07131
318.52733,0.08639
317.03754,0.02496
315.54776,0.04292
314.05797,0.06090
312.56818,0.10156
311.07839,0.09382
309.58860,0.05018
308.09881,0.00656
306.60902,0.06480
305.11924,0.12150
303.62945,0.08059
302.13966,0.03971
300.64987,0.01525
299.16008,0.00656
