1778.52000,0.02905
1777.03021,0.01751
1775.54042,0.06993
1774.05063,0.02923
1772.56085,0.00681
1771.07106,0.04104
1769.58127,0.05521
1768.09148,0.00000
1766.60169,0.05988
1765.11190,0.04308
1763.62212,0.00074
1762.13233,0.04609
1760.64254,0.06407
1759.15275,0.06564
1757.66296,0.06176
1756.17317,0.01407
1754.68339,0.08330
1753.19360,0.01374
1751.70381,0.03736
1750.21402,0.00074
1748.72423,0.01873
1747.23444,0.02945
1745.74465,0.02741
1744.25487,0.02722
1742.76508,0.08186
1741.27529,0.03241
1739.78550,0.02134
1738.29571,0.06145
1736.80592,0.08514
1735.31614,0.03580
1733.82635,0.05041
1732.33656,0.01025
1730.84677,0.06145
1729.35698,0.00491
1727.86719,0.03241
1726.37740,0.05629
1724.88762,0.00896
1723.39783,0.04385
1721.90804,0.06050
1720.41825,0.02421
1718.92846,0.00074
1717.43867,0.05413
1715.94889,0.11302
1714.45910,0.03678
1712.96931,0.05555
1711.47952,0.04695
1709.98973,0.04385
1708.49994,0.06270
1707.01016,0.07974
1705.52037,0.09682
1704.03058,0.08470
1702.54079,0.08904
1701.05100,0.03496
1699.56121,0.08867
1698.07142,0.03099
1696.58164,0.03362
1695.09185,0.11298
1693.60206,0.03894
1692.11227,0.12018
1690.62248,0.08638
1689.13269,0.06357
1687.64291,0.10471
1686.15312,0.05637
1684.66333,0.07017
1683.17354,0.00545
1681.68375,0.05766
1680.19396,0.06788
1678.70417,0.04525
1677.21439,0.00074
1675.72460,0.07861
1674.23481,0.08527
1672.74502,0.09379
1671.25523,0.10599
1669.76544,0.12187
1668.27566,0.08846
1666.78587,0.06786
1665.29608,0.11122
1663.80629,0.09798
1662.31650,0.05554
1660.82671,0.08984
1659.33693,0.13331
1657.84714,0.13296
1656.35735,0.06689
1654.86756,0.08121
1653.37777,0.07912
1651.88798,0.06792
1650.39819,0.09510
1648.90841,0.12049
1647.41862,0.07284
1645.92883,0.08641
1644.43904,0.10000
1642.94925,0.06887
1641.45946,0.07064
1639.96968,0.06149
1638.47989,0.09619
1636.99010,0.07978
1635.50031,0.06522
1634.01052,0.07261
1632.52073,0.05994
1631.03094,0.04728
1629.54116,0.08946
1628.05137,0.10791
1626.56158,0.09351
1625.07179,0.04627
1623.58200,0.06480
1622.09221,0.07605
1620.60243,0.03072
1619.11264,0.03472
1617.62285,0.09171
1616.13306,0.09942
1614.64327,0.07976
1613.15348,0.04003
1611.66370,0.07887
1610.17391,0.09947
1608.68412,0.04156
1607.19433,0.07135
1605.70454,0.07011
1604.21475,0.07164
1602.72496,0.07320
1601.23518,0.07204
1599.74539,0.08552
1598.25560,0.05702
1596.76581,0.07969
1595.27602,0.05307
1593.78623,0.05935
1592.29645,0.08210
1590.80666,0.06104
1589.31687,0.10393
1587.82708,0.00074
1586.33729,0.10466
1584.84750,0.02963
1583.35771,0.08977
1581.86793,0.06776
1580.37814,0.08595
1578.88835,0.03293
1577.39856,0.04022
1575.90877,0.07858
1574.41898,0.02747
1572.92920,0.08050
1571.43941,0.03493
1569.94962,0.03869
1568.45983,0.04249
1566.97004,0.07370
1565.48025,0.05381
1563.99047,0.08508
1562.50068,0.06888
1561.01089,0.14039
1559.52110,0.04389
1558.03131,0.02961
1556.54152,0.00074
1555.05173,0.08394
1553.56195,0.08315
1552.07216,0.12440
1550.58237,0.05426
1549.09258,0.11748
1547.60279,0.14602
1546.11300,0.18007
1544.62322,0.20684
1543.13343,0.17337
1541.64364,0.07234
1540.15385,0.08549
1538.66406,0.09867
1537.17427,0.07991
1535.68448,0.07031
1534.19470,0.08266
1532.70491,0.04024
1531.21512,0.09464
1529.72533,0.04680
1528.23554,0.00811
1526.74575,0.06442
1525.25597,0.08606
1523.76618,0.08398
1522.27639,0.02348
1520.78660,0.07442
1519.29681,0.04868
1517.80702,0.07593
1516.31724,0.08677
1514.82745,0.09399
1513.33766,0.08296
1511.84787,0.07197
1510.35808,0.09022
1508.86829,0.00074
1507.37850,0.05608
1505.88872,0.06945
1504.39893,0.04996
1502.90914,0.07251
1501.41935,0.06404
1499.92956,0.12865
1498.43977,0.07822
1496.94999,0.09905
1495.46020,0.07060
1493.97041,0.12071
1492.48062,0.13248
1490.99083,0.12237
1489.50104,0.13420
1488.01125,0.12141
1486.52147,0.10863
1485.03168,0.14977
1483.54189,0.17997
1482.05210,0.20655
1480.56231,0.19115
1479.07252,0.26526
1477.58274,0.24078
1476.09295,0.26929
1474.60316,0.29783
1473.11337,0.27343
1471.62358,0.29654
1470.13379,0.28132
1468.64401,0.28074
1467.15422,0.28384
1465.66443,0.28149
1464.17464,0.27917
1462.68485,0.26226
1461.19506,0.27460
1459.70527,0.20112
1458.21549,0.16055
1456.72570,0.12913
1455.23591,0.12879
1453.74612,0.18693
1452.25633,0.14646
1450.76654,0.10968
1449.27676,0.14415
1447.78697,0.12751
1446.29718,0.14377
1444.80739,0.13631
1443.31760,0.12888
1441.82781,0.12878
1440.33802,0.05383
1438.84824,0.06839
1437.35845,0.11587
1435.86866,0.07204
1434.37887,0.08486
1432.88908,0.09406
1431.39929,0.06858
1429.90951,0.05956
1428.41972,0.08162
1426.92993,0.14389
1425.44014,0.14591
1423.95035,0.17627
1422.46056,0.20666
1420.97078,0.18137
1419.48099,0.20176
1417.99120,0.19661
1416.50141,0.21889
1415.01162,0.18822
1413.52183,0.23612
1412.03204,0.18724
1410.54226,0.23154
1409.05247,0.22473
1407.56268,0.17593
1406.07289,0.23858
1404.58310,0.23275
1403.09331,0.22696
1401.60353,0.26594
1400.11374,0.29216
1398.62395,0.33119
1397.13416,0.25154
1395.64437,0.28514
1394.15458,0.27677
1392.66479,0.26842
1391.17501,0.26923
1389.68522,0.33583
1388.19543,0.29103
1386.70564,0.29649
1385.21585,0.30197
1383.72606,0.25543
1382.23628,0.20891
1380.74649,0.25375
1379.25670,0.28582
1377.76691,0.34532
1376.27712,0.35005
1374.78733,0.38038
1373.29755,0.47467
1371.80776,0.58359
1370.31797,0.64870
1368.82818,0.70471
1367.33839,0.76074
1365.84860,0.82776
1364.35881,0.91307
1362.86903,1.02580
1361.37924,1.09656
1359.88945,1.10341
1358.39966,1.12125
1356.90987,1.00578
1355.42008,1.01454
1353.93030,1.00141
1352.44051,0.98739
1350.95072,0.97340
1349.46093,0.86720
1347.97114,0.63500
1346.48135,0.56904
1344.99156,0.46657
1343.50178,0.42623
1342.01199,0.32929
1340.52220,0.36389
1339.03241,0.29258
1337.54262,0.24321
1336.05283,0.28246
1334.56305,0.32173
1333.07326,0.22130
1331.58347,0.25423
1330.09368,0.21778
1328.60389,0.23433
1327.11410,0.16141
1325.62432,0.14331
1324.13453,0.13071
1322.64474,0.09074
1321.15495,0.10742
1319.66516,0.09491
1318.17537,0.08242
1316.68558,0.12110
1315.19580,0.13058
1313.70601,0.04876
1312.21622,0.05464
1310.72643,0.10439
1309.23664,0.04822
1307.74685,0.11811
1306.25707,0.09671
1304.76728,0.07715
1303.27749,0.05762
1301.78770,0.15136
1300.29791,0.07709
1298.80812,0.09783
1297.31834,0.07110
1295.82855,0.08824
1294.33876,0.04878
1292.84897,0.00387
1291.35918,0.08501
1289.86939,0.08399
1288.37960,0.08299
1286.88982,0.04549
1285.40003,0.05368
1283.91024,0.04729
1282.42045,0.00074
1280.93066,0.05138
1279.44087,0.11849
1277.95109,0.09613
1276.46130,0.09207
1274.97151,0.07524
1273.48172,0.05844
1271.99193,0.08916
1270.50214,0.07789
1269.01235,0.09222
1267.52257,0.09562
1266.03278,0.14471
1264.54299,0.09336
1263.05320,0.09502
1261.56341,0.09944
1260.07362,0.10388
1258.58384,0.11475
1257.09405,0.11285
1255.60426,0.11281
1254.11447,0.13106
1252.62468,0.11281
1251.13489,0.09459
1249.64511,0.05995
1248.15532,0.12580
1246.66553,0.10400
1245.17574,0.08223
1243.68595,0.04770
1242.19616,0.02598
1240.70637,0.06456
1239.21659,0.02646
1237.72680,0.08154
1236.23701,0.02523
1234.74722,0.05296
1233.25743,0.02683
1231.76764,0.00074
1230.27786,0.07092
1228.78807,0.07355
1227.29828,0.07803
1225.80849,0.09898
1224.31870,0.03046
1222.82891,0.11173
1221.33912,0.05787
1219.84934,0.05244
1218.35955,0.04704
1216.86976,0.08824
1215.37997,0.05093
1213.89018,0.06113
1212.40039,0.06040
1210.91061,0.09440
1209.42082,0.06085
1207.93103,0.04376
1206.44124,0.02670
1204.95145,0.04254
1203.46166,0.07851
1201.97188,0.02134
1200.48209,0.00074
1198.99230,0.01994
1197.50251,0.03369
1196.01272,0.10410
1194.52293,0.08046
1193.03314,0.05685
1191.54336,0.03235
1190.05357,0.09190
1188.56378,0.02545
1187.07399,0.04487
1185.58420,0.07710
1184.09441,0.08196
1182.60463,0.05306
1181.11484,0.02419
1179.62505,0.03643
1178.13526,0.08341
1176.64547,0.00074
1175.15568,0.06249
1173.66589,0.02565
1172.17611,0.12034
1170.68632,0.07715
1169.19653,0.03400
1167.70674,0.03744
1166.21695,0.04457
1164.72716,0.06815
1163.23738,0.04063
1161.74759,0.12455
1160.25780,0.07333
1158.76801,0.06506
1157.27822,0.05682
1155.78843,0.11710
1154.29865,0.08608
1152.80886,0.15737
1151.31907,0.15746
1149.82928,0.09547
1148.33949,0.02621
1146.84970,0.03459
1145.35991,0.04300
1143.87013,0.10898
1142.38034,0.09826
1140.89055,0.06931
1139.40076,0.08788
1137.91097,0.15213
1136.42118,0.14883
1134.93140,0.13095
1133.44161,0.11309
1131.95182,0.14457
1130.46203,0.15964
1128.97224,0.11995
1127.48245,0.18987
1125.99266,0.19041
1124.50288,0.20193
1123.01309,0.17604
1121.52330,0.15018
1120.03351,0.14535
1118.54372,0.18803
1117.05393,0.21065
1115.56415,0.26800
1114.07436,0.24318
1112.58457,0.23940
1111.09478,0.23564
1109.60499,0.26387
1108.11520,0.41085
1106.62542,0.35146
1105.13563,0.41630
1103.64584,0.40994
1102.15605,0.45109
1100.66626,0.48222
1099.17647,0.51338
1097.68668,0.54000
1096.19690,0.53742
1094.70711,0.64081
1093.21732,0.67846
1091.72753,0.67779
1090.23774,0.72738
1088.74795,0.77699
1087.25817,0.70334
1085.76838,0.75757
1084.27859,0.70041
1082.78880,0.72912
1081.29901,0.91128
1079.80922,0.84690
1078.31943,0.81360
1076.82965,0.78031
1075.33986,0.77629
1073.85007,0.80516
1072.36028,0.85780
1070.87049,0.72600
1069.38070,0.70929
1067.89092,0.69900
1066.40113,0.68874
1064.91134,0.67212
1063.42155,0.65917
1061.93176,0.66086
1060.44197,0.60961
1058.95219,0.51820
1057.46240,0.53641
1055.97261,0.55465
1054.48282,0.40670
1052.99303,0.39577
1051.50324,0.38121
1050.01345,0.36850
1048.52367,0.35217
1047.03388,0.36143
1045.54409,0.37072
1044.05430,0.33985
1042.56451,0.28162
1041.07472,0.29282
1039.58494,0.26568
1038.09515,0.34269
1036.60536,0.29552
1035.11557,0.24838
1033.62578,0.29258
1032.13599,0.24001
1030.64620,0.25505
1029.15642,0.22445
1027.66663,0.20393
1026.17684,0.18343
1024.68705,0.30268
1023.19726,0.28498
1021.70747,0.26547
1020.21769,0.29713
1018.72790,0.30325
1017.23811,0.37424
1015.74832,0.44525
1014.25853,0.45145
1012.76874,0.51612
1011.27896,0.65205
1009.78917,0.80262
1008.29938,0.75596
1006.80959,0.83352
1005.31980,0.91112
1003.83001,1.08188
1002.34022,1.19240
1000.85044,1.32122
999.36065,1.46832
997.87086,1.47025
996.38107,1.47220
994.89128,1.55729
993.40149,1.69354
991.91171,1.90287
990.42192,1.80174
988.93213,1.75908
987.44234,1.84430
985.95255,1.92954
984.46276,1.87600
982.97297,1.89555
981.48319,1.88772
979.99340,1.80322
978.50361,1.74339
977.01382,1.68359
975.52403,1.72702
974.03424,1.73576
972.54446,1.57103
971.05467,1.48302
969.56488,1.34756
968.07509,1.41669
966.58530,1.48584
965.09551,1.31028
963.60573,1.35757
962.11594,1.33548
960.62615,1.33351
959.13636,1.28773
957.64657,1.24198
956.15678,1.19443
954.66699,1.09576
953.17721,0.94233
951.68742,0.99166
950.19763,0.97892
948.70784,0.96620
947.21805,1.03205
945.72826,0.92624
944.23848,0.93004
942.74869,1.01241
941.25890,0.93956
939.76911,0.90417
938.27932,0.86881
936.78953,0.92754
935.29974,0.86575
933.80996,0.95193
932.32017,0.89203
930.83038,0.92347
929.34059,0.95493
927.85080,1.01200
926.36101,0.99420
924.87123,1.11342
923.38144,1.08472
921.89165,1.11358
920.40186,1.14247
918.91207,1.17230
917.42228,1.31357
915.93250,1.39094
914.44271,1.44094
912.95292,1.47726
911.46313,1.51362
909.97334,1.63128
908.48355,1.70513
906.99376,1.86850
905.50398,1.84560
904.01419,1.88118
902.52440,1.91678
901.03461,1.80629
899.54482,1.90222
898.05503,2.00000
896.56525,1.99918
895.07546,1.98195
893.58567,1.96474
892.09588,1.88912
890.60609,1.97607
889.11630,1.82562
887.62651,1.74094
886.13673,1.70104
884.64694,1.66116
883.15715,1.59848
881.66736,1.50661
880.17757,1.31978
878.68778,1.30924
877.19800,1.29872
875.70821,1.16129
874.21842,1.09512
872.72863,1.02349
871.23884,0.85326
869.74905,0.80544
868.25927,0.75764
866.76948,0.77379
865.27969,0.63107
863.78990,0.63997
862.30011,0.50826
860.81032,0.52726
859.32053,0.54628
857.83075,0.49136
856.34096,0.41090
854.85117,0.41448
853.36138,0.34868
851.87159,0.33588
850.38180,0.32310
848.89202,0.25556
847.40223,0.19535
845.91244,0.17900
844.42265,0.18368
842.93286,0.18839
841.44307,0.09358
839.95329,0.06821
838.46350,0.14514
836.97371,0.09059
835.48392,0.08357
833.99413,0.07656
832.50434,0.09516
831.01455,0.03159
829.52477,0.06485
828.03498,0.09630
826.54519,0.09217
825.05540,0.08807
823.56561,0.07760
822.07582,0.04342
820.58604,0.02204
819.09625,0.05001
817.60646,0.07800
816.11667,0.02566
814.62688,0.07014
813.13709,0.06169
811.64730,0.01490
810.15752,0.03481
808.66773,0.05475
807.17794,0.00074
805.68815,0.04311
804.19836,0.11108
802.70857,0.10967
801.21879,0.10829
799.72900,0.09963
798.23921,0.10195
796.74942,0.15179
795.25963,0.19070
793.76984,0.22964
792.28006,0.24303
790.79027,0.23453
789.30048,0.25893
787.81069,0.26509
786.32090,0.24663
784.83111,0.22819
783.34132,0.25087
781.85154,0.33203
780.36175,0.25979
778.87196,0.28529
777.38217,0.31082
775.89238,0.40305
774.40259,0.42406
772.91281,0.44328
771.42302,0.43604
769.93323,0.42883
768.44344,0.42986
766.95365,0.33960
765.46386,0.40096
763.97407,0.37833
762.48429,0.37490
760.99450,0.37150
759.50471,0.32703
758.01492,0.18762
756.52513,0.22539
755.03534,0.21754
753.54556,0.20970
752.05577,0.10692
750.56598,0.12106
749.07619,0.08043
747.58640,0.09189
746.09661,0.10337
744.60683,0.04638
743.11704,0.06248
741.62725,0.03842
740.13746,0.03449
738.64767,0.03057
737.15788,0.05591
735.66809,0.05023
734.17831,0.00074
732.68852,0.03418
731.19873,0.06765
729.70894,0.10572
728.21915,0.08719
726.72936,0.08877
725.23958,0.13057
723.74979,0.08929
722.26000,0.04804
720.77021,0.12279
719.28042,0.08433
717.79063,0.04590
716.30084,0.06228
714.81106,0.07870
713.32127,0.10610
711.83148,0.12074
710.34169,0.08792
708.85190,0.09531
707.36211,0.10272
705.87233,0.10651
704.38254,0.00074
702.89275,0.09489
701.40296,0.10413
699.91317,0.11341
698.42338,0.11449
696.93360,0.13386
695.44381,0.30303
693.95402,0.28318
692.46423,0.26337
690.97444,0.12029
689.48465,0.06491
687.99486,0.09540
686.50508,0.09852
685.01529,0.10167
683.52550,0.00074
682.03571,0.06088
680.54592,0.01878
679.05613,0.04062
677.56635,0.06249
676.07656,0.06795
674.58677,0.05518
673.09698,0.07896
671.60719,0.10185
670.11740,0.12477
668.62761,0.08653
667.13783,0.06110
665.64804,0.11423
664.15825,0.16740
662.66846,0.10552
661.17867,0.06741
659.68888,0.04759
658.19910,0.02415
656.70931,0.00074
655.21952,0.06441
653.72973,0.10254
652.23994,0.11330
650.75015,0.11221
649.26037,0.11115
647.77058,0.05258
646.28079,0.18034
644.79100,0.19854
643.30121,0.18571
641.81142,0.17291
640.32163,0.08343
638.83185,0.10356
637.34206,0.07257
635.85227,0.05806
634.36248,0.04356
632.87269,0.06563
631.38290,0.14069
629.89312,0.07696
628.40333,0.07810
626.91354,0.07927
625.42375,0.03937
623.93396,0.12552
622.44417,0.11124
620.95438,0.09699
619.46460,0.06632
617.97481,0.15989
616.48502,0.06901
614.99523,0.06582
613.50544,0.06266
612.01565,0.05588
610.52587,0.11670
609.03608,0.04787
607.54629,0.09048
606.05650,0.13311
604.56671,0.11185
603.07692,0.14176
601.58714,0.13607
600.09735,0.13041
598.60756,0.14214
597.11777,0.13927
595.62798,0.17114
594.13819,0.11992
592.64840,0.06874
591.15862,0.20114
589.66883,0.16005
588.17904,0.22858
586.68925,0.20673
585.19946,0.18490
583.70967,0.22245
582.21989,0.21803
580.73010,0.21272
579.24031,0.20744
577.75052,0.22136
576.26073,0.29375
574.77094,0.34791
573.28115,0.33178
571.79137,0.31567
570.30158,0.46488
568.81179,0.47714
567.32200,0.50860
565.83221,0.54008
564.34242,0.58530
562.85264,0.56478
561.36285,0.68128
559.87306,0.68547
558.38327,0.68970
556.89348,0.74600
555.40369,0.85530
553.91391,0.83677
552.42412,0.81827
550.93433,0.81807
549.44454,0.88911
547.95475,0.93827
546.46496,0.94362
544.97517,0.94900
543.48539,0.99276
541.99560,0.98358
540.50581,1.00639
539.01602,1.02922
537.52623,1.18268
536.03644,1.13160
534.54666,1.23762
533.05687,1.18111
531.56708,1.12463
530.07729,1.05539
528.58750,1.06288
527.09771,1.01288
525.60792,0.96289
524.11814,0.90289
522.62835,0.82100
521.13856,0.89073
519.64877,0.85273
518.15898,0.81475
516.66919,0.74758
515.17941,0.68226
513.68962,0.69277
512.19983,0.70330
510.71004,0.63075
509.22025,0.56006
507.73046,0.61725
506.24068,0.61875
504.75089,0.62029
503.26110,0.54788
501.77131,0.42253
500.28152,0.39674
498.79173,0.37098
497.30194,0.40644
495.81216,0.34695
494.32237,0.32949
492.83258,0.31206
491.34279,0.29831
489.85300,0.19326
488.36321,0.25993
486.87343,0.23530
485.38364,0.21070
483.89385,0.15690
482.40406,0.18532
480.91427,0.15897
479.42448,0.13265
477.93469,0.11913
476.44491,0.12757
474.95512,0.14882
473.46533,0.17009
471.97554,0.06171
470.48575,0.10130
468.99596,0.16466
467.50618,0.19517
466.01639,0.22571
464.52660,0.09190
463.03681,0.14441
461.54702,0.15128
460.05723,0.15818
458.56745,0.20895
457.07766,0.25243
455.58787,0.23019
454.09808,0.20797
452.60829,0.27346
451.11850,0.21842
449.62871,0.25564
448.13893,0.29290
446.64914,0.28543
445.15935,0.44236
443.66956,0.45687
442.17977,0.50153
440.68998,0.54622
439.20020,0.53158
437.71041,0.60098
436.22062,0.61014
434.73083,0.61932
433.24104,0.65045
431.75125,0.75101
430.26146,0.79863
428.77168,0.84627
427.28189,0.91038
425.79210,0.89781
424.30231,1.01311
422.81252,1.12844
421.32273,1.39905
419.83295,1.41033
418.34316,1.34857
416.85337,1.28685
415.36358,1.06076
413.87379,0.92786
412.38400,0.84520
410.89422,0.76258
409.40443,1.09733
407.91464,1.00471
406.42485,1.13129
404.93506,1.11361
403.44527,1.09596
401.95548,1.01441
400.46570,1.02055
398.97591,0.97193
397.48612,0.92334
395.99633,0.93687
394.50654,0.82988
393.01675,0.81424
391.52697,0.79863
390.03718,0.99126
388.54739,0.84419
387.05760,0.85789
385.56781,0.87160
384.07802,0.93284
382.58824,0.86807
381.09845,0.82251
379.60866,0.77698
378.11887,0.79631
376.62908,0.72799
375.13929,0.68345
373.64950,0.63894
372.15972,0.57619
370.66993,0.47145
369.18014,0.48729
367.69035,0.50316
366.20056,0.47156
364.71077,0.36511
363.22099,0.30891
361.73120,0.25274
360.24141,0.20664
358.75162,0.29389
357.26183,0.26520
355.77204,0.23653
354.28225,0.29830
352.79247,0.10439
351.30268,0.13242
349.81289,0.16048
348.32310,0.14381
346.83331,0.04681
345.34352,0.06034
343.85374,0.07389
342.36395,0.12674
340.87416,0.07003
339.38437,0.07362
337.89458,0.07724
336.40479,0.00417
334.91501,0.01879
333.42522,0.04806
331.93543,0.07735
330.44564,0.00074
328.95585,0.03059
327.46606,0.02759
325.97627,0.02461
324.48649,0.06002
322.99670,0.00596
321.50691,0.00817
320.01712,0.01042
318.52733,0.03278
317.03754,0.00585
315.54776,0.03557
314.05797,0.06532
312.56818,0.09327
311.07839,0.14316
309.58860,0.08988
308.09881,0.03664
306.60902,0.10853
305.11924,0.14026
303.62945,0.07065
302.13966,0.00107
300.64987,0.05112
299.16008,0.00074
