1778.52000,0.00000
1777.03021,0.04815
1775.54042,0.00081
1774.05063,0.05452
1772.56085,0.07336
1771.07106,0.03897
1769.58127,0.04133
1768.09148,0.05475
1766.60169,0.03514
1765.11190,0.01922
1763.62212,0.03273
1762.13233,0.00401
1760.64254,0.01574
1759.15275,0.05504
1757.66296,0.06315
1756.17317,0.03088
1754.68339,0.01700
1753.19360,0.01785
1751.70381,0.00403
1750.21402,0.04901
1748.72423,0.08852
1747.23444,0.01234
1745.74465,0.01149
1744.25487,0.02537
1742.76508,0.02458
1741.27529,0.06606
1739.78550,0.04696
1738.29571,0.00401
1736.80592,0.04322
1735.31614,0.08429
1733.82635,0.04274
1732.33656,0.05632
1730.84677,0.05523
1729.35698,0.02111
1727.86719,0.06416
1726.37740,0.07418
1724.88762,0.06219
1723.39783,0.03737
1721.90804,0.04931
1720.41825,0.07965
1718.92846,0.01450
1717.43867,0.07796
1715.94889,0.04410
1714.45910,0.01577
1712.96931,0.00401
1711.47952,0.02820
1709.98973,0.03956
1708.49994,0.04911
1707.01016,0.04951
1705.52037,0.04994
1704.03058,0.09448
1702.54079,0.09863
1701.05100,0.11384
1699.56121,0.02805
1698.07142,0.03780
1696.58164,0.05677
1695.09185,0.03719
1693.60206,0.06540
1692.11227,0.04037
1690.62248,0.05210
1689.13269,0.10978
1687.64291,0.08667
1686.15312,0.09482
1684.66333,0.05340
1683.17354,0.02119
1681.68375,0.06249
1680.19396,0.04503
1678.70417,0.05699
1677.21439,0.08184
1675.72460,0.06264
1674.23481,0.07285
1672.74502,0.05921
1671.25523,0.03642
1669.76544,0.06508
1668.27566,0.12317
1666.78587,0.04535
1665.29608,0.04104
1663.80629,0.04227
1662.31650,0.10782
1660.82671,0.08339
1659.33693,0.05899
1657.84714,0.11360
1656.35735,0.06905
1654.86756,0.10351
1653.37777,0.11045
1651.88798,0.09538
1650.39819,0.06564
1648.90841,0.10205
1647.41862,0.08890
1645.92883,0.06843
1644.43904,0.04799
1642.94925,0.08635
1641.45946,0.04760
1639.96968,0.08235
1638.47989,0.07488
1636.99010,0.04724
1635.50031,0.11514
1634.01052,0.07285
1632.52073,0.05080
1631.03094,0.08573
1629.54116,0.06374
1628.05137,0.09137
1626.56158,0.07127
1625.07179,0.06773
1623.58200,0.09912
1622.09221,0.00931
1620.60243,0.07566
1619.11264,0.05754
1617.62285,0.04313
1616.13306,0.05629
1614.64327,0.04745
1613.15348,0.06434
1611.66370,0.12535
1610.17391,0.07986
1608.68412,0.08582
1607.19433,0.03487
1605.70454,0.10518
1604.21475,0.08000
1602.72496,0.05485
1601.23518,0.00401
1599.74539,0.04086
1598.25560,0.05570
1596.76581,0.08527
1595.27602,0.07261
1593.78623,0.08386
1592.29645,0.07861
1590.80666,0.07890
1589.31687,0.06636
1587.82708,0.07589
1586.33729,0.09831
1584.84750,0.07116
1583.35771,0.06608
1581.86793,0.06470
1580.37814,0.07989
1578.88835,0.05469
1577.39856,0.04973
1575.90877,0.05030
1574.41898,0.04356
1572.92920,0.03133
1571.43941,0.02832
1569.94962,0.01615
1568.45983,0.00401
1566.97004,0.01193
1565.48025,0.04559
1563.99047,0.07744
1562.50068,0.02116
1561.01089,0.07144
1559.52110,0.05378
1558.03131,0.07289
1556.54152,0.05162
1555.05173,0.08365
1553.56195,0.04774
1552.07216,0.06696
1550.58237,0.04764
1549.09258,0.05407
1547.60279,0.20563
1546.11300,0.28191
1544.62322,0.26271
1543.13343,0.18108
1541.64364,0.09948
1540.15385,0.08036
1538.66406,0.06127
1537.17427,0.09731
1535.68448,0.06909
1534.19470,0.03907
1532.70491,0.08438
1531.21512,0.03604
1529.72533,0.05570
1528.23554,0.00191
1526.74575,0.04182
1525.25597,0.04503
1523.76618,0.05929
1522.27639,0.03501
1520.78660,0.04381
1519.29681,0.03612
1517.80702,0.03579
1516.31724,0.05020
1514.82745,0.00401
1513.33766,0.04355
1511.84787,0.08311
1510.35808,0.06209
1508.86829,0.02457
1507.37850,0.07708
1505.88872,0.03410
1504.39893,0.00401
1502.90914,0.04876
1501.41935,0.00904
1499.92956,0.06302
1498.43977,0.02152
1496.94999,0.03700
1495.46020,0.02862
1493.97041,0.08639
1492.48062,0.02664
1490.99083,0.09182
1489.50104,0.13131
1488.01125,0.12216
1486.52147,0.11303
1485.03168,0.13424
1483.54189,0.15548
1482.05210,0.17492
1480.56231,0.18152
1479.07252,0.24693
1477.58274,0.25359
1476.09295,0.21252
1474.60316,0.22107
1473.11337,0.27374
1471.62358,0.26765
1470.13379,0.33140
1468.64401,0.29415
1467.15422,0.28998
1465.66443,0.21973
1464.17464,0.14950
1462.68485,0.18767
1461.19506,0.15974
1459.70527,0.13919
1458.21549,0.11867
1456.72570,0.12022
1455.23591,0.09976
1453.74612,0.09218
1452.25633,0.09565
1450.76654,0.15242
1449.27676,0.09718
1447.78697,0.13931
1446.29718,0.10800
1444.80739,0.11988
1443.31760,0.13179
1441.82781,0.10056
1440.33802,0.05651
1438.84824,0.04922
1437.35845,0.02910
1435.86866,0.00350
1434.37887,0.03486
1432.88908,0.06994
1431.39929,0.00401
1429.90951,0.06098
1428.41972,0.14919
1426.92993,0.11070
1425.44014,0.06489
1423.95035,0.10819
1422.46056,0.15152
1420.97078,0.12967
1419.48099,0.18316
1417.99120,0.19076
1416.50141,0.15247
1415.01162,0.24095
1413.52183,0.23394
1412.03204,0.19940
1410.54226,0.23837
1409.05247,0.19838
1407.56268,0.17128
1406.07289,0.21217
1404.58310,0.22646
1403.09331,0.24077
1401.60353,0.23399
1400.11374,0.17765
1398.62395,0.24072
1397.13416,0.27628
1395.64437,0.31553
1394.15458,0.29052
1392.66479,0.23432
1391.17501,0.25529
1389.68522,0.27997
1388.19543,0.21099
1386.70564,0.20817
1385.21585,0.20538
1383.72606,0.21548
1382.23628,0.21642
1380.74649,0.21371
1379.25670,0.21838
1377.76691,0.23043
1376.27712,0.36741
1374.78733,0.41074
1373.29755,0.44307
1371.80776,0.51585
1370.31797,0.61805
1368.82818,0.69639
1367.33839,0.77476
1365.84860,0.84398
1364.35881,0.95180
1362.86903,1.03577
1361.37924,1.00221
1359.88945,1.05134
1358.39966,1.04171
1356.90987,0.97518
1355.42008,0.91785
1353.93030,0.93770
1352.44051,0.96769
1350.95072,0.99770
1349.46093,0.88722
1347.97114,0.59676
1346.48135,0.53961
1344.99156,0.39983
1343.50178,0.37947
1342.01199,0.29853
1340.52220,0.35170
1339.03241,0.24877
1337.54262,0.33323
1336.05283,0.31301
1334.56305,0.29282
1333.07326,0.22307
1331.58347,0.23417
1330.09368,0.20672
1328.60389,0.15726
1327.11410,0.12987
1325.62432,0.15210
1324.13453,0.14130
1322.64474,0.09563
1321.15495,0.10693
1319.66516,0.10356
1318.17537,0.10022
1316.68558,0.10793
1315.19580,0.11934
1313.70601,0.07568
1312.21622,0.10552
1310.72643,0.07477
1309.23664,0.06058
1307.74685,0.05928
1306.25707,0.10025
1304.76728,0.07421
1303.27749,0.04820
1301.78770,0.05252
1300.29791,0.07157
1298.80812,0.02636
1297.31834,0.06750
1295.82855,0.07561
1294.33876,0.06538
1292.84897,0.02580
1291.35918,0.05053
1289.86939,0.05232
1288.37960,0.05415
1286.88982,0.05325
1285.40003,0.02299
1283.91024,0.06072
1282.42045,0.01765
1280.93066,0.00401
1279.44087,0.02616
1277.95109,0.05200
1276.46130,0.05584
1274.97151,0.06521
1273.48172,0.07462
1271.99193,0.04180
1270.50214,0.04759
1269.01235,0.03136
1267.52257,0.05190
1266.03278,0.12390
1264.54299,0.13163
1263.05320,0.07695
1261.56341,0.08107
1260.07362,0.08522
1258.58384,0.08756
1257.09405,0.15422
1255.60426,0.05008
1254.11447,0.11129
1252.62468,0.09905
1251.13489,0.11439
1249.64511,0.03425
1248.15532,0.05700
1246.66553,0.06967
1245.17574,0.08237
1243.68595,0.07765
1242.19616,0.00684
1240.70637,0.00401
1239.21659,0.08367
1237.72680,0.03845
1236.23701,0.04653
1234.74722,0.08587
1233.25743,0.05176
1231.76764,0.01768
1230.27786,0.04975
1228.78807,0.10757
1227.29828,0.10480
1225.80849,0.09104
1224.31870,0.04792
1222.82891,0.11504
1221.33912,0.08116
1219.84934,0.07302
1218.35955,0.06491
1216.86976,0.12296
1215.37997,0.10572
1213.89018,0.05178
1212.40039,0.02358
1210.91061,0.09644
1209.42082,0.00401
1207.93103,0.01311
1206.44124,0.02223
1204.95145,0.06077
1203.46166,0.07363
1201.97188,0.10672
1200.48209,0.02044
1198.99230,0.02236
1197.50251,0.04268
1196.01272,0.02996
1194.52293,0.04023
1193.03314,0.05053
1191.54336,0.02688
1190.05357,0.03265
1188.56378,0.04212
1187.07399,0.04610
1185.58420,0.03175
1184.09441,0.02661
1182.60463,0.03986
1181.11484,0.05315
1179.62505,0.00401
1178.13526,0.06781
1176.64547,0.01959
1175.15568,0.03936
1173.66589,0.11059
1172.17611,0.05143
1170.68632,0.06211
1169.19653,0.07281
1167.70674,0.11844
1166.21695,0.12552
1164.72716,0.11060
1163.23738,0.00936
1161.74759,0.01837
1160.25780,0.06965
1158.76801,0.05209
1157.27822,0.03454
1155.78843,0.12265
1154.29865,0.11160
1152.80886,0.06016
1151.31907,0.08774
1149.82928,0.10432
1148.33949,0.11359
1146.84970,0.12013
1145.35991,0.12669
1143.87013,0.11400
1142.38034,0.11420
1140.89055,0.12545
1139.40076,0.14958
1137.91097,0.11680
1136.42118,0.09874
1134.93140,0.09081
1133.44161,0.08291
1131.95182,0.12923
1130.46203,0.14252
1128.97224,0.10072
1127.48245,0.16182
1125.99266,0.12376
1124.50288,0.19410
1123.01309,0.16987
1121.52330,0.14567
1120.03351,0.18303
1118.54372,0.19838
1117.05393,0.23764
1115.56415,0.28794
1114.07436,0.27399
1112.58457,0.25823
1111.09478,0.24249
1109.60499,0.28189
1108.11520,0.36724
1106.62542,0.41221
1105.13563,0.40578
1103.64584,0.39753
1102.15605,0.50871
1100.66626,0.50145
1099.17647,0.49421
1097.68668,0.51179
1096.19690,0.56431
1094.70711,0.58563
1093.21732,0.71351
1091.72753,0.65590
1090.23774,0.70394
1088.74795,0.75201
1087.25817,0.69449
1085.76838,0.70128
1084.27859,0.77791
1082.78880,0.81415
1081.29901,0.82287
1079.80922,0.78569
1078.31943,0.77794
1076.82965,0.77021
1075.33986,0.76251
1073.85007,0.89444
1072.36028,0.74169
1070.87049,0.67162
1069.38070,0.67690
1067.89092,0.71985
1066.40113,0.76284
1064.91134,0.69656
1063.42155,0.67073
1061.93176,0.61002
1060.44197,0.60444
1058.95219,0.56032
1057.46240,0.51898
1055.97261,0.47768
1054.48282,0.50895
1052.99303,0.41535
1051.50324,0.43015
1050.01345,0.36416
1048.52367,0.36065
1047.03388,0.32778
1045.54409,0.29494
1044.05430,0.26948
1042.56451,0.32486
1041.07472,0.28476
1039.58494,0.28509
1038.09515,0.27627
1036.60536,0.29687
1035.11557,0.31750
1033.62578,0.32714
1032.13599,0.27067
1030.64620,0.25832
1029.15642,0.21294
1027.66663,0.20616
1026.17684,0.19940
1024.68705,0.34881
1023.19726,0.25762
1021.70747,0.35198
1020.21769,0.35820
1018.72790,0.34975
1017.23811,0.36705
1015.74832,0.38438
1014.25853,0.43296
1012.76874,0.59545
1011.27896,0.68634
1009.78917,0.74419
1008.29938,0.71574
1006.80959,0.80212
1005.31980,0.88853
1003.83001,0.98874
1002.34022,1.13490
1000.85044,1.24252
999.36065,1.32813
997.87086,1.34763
996.38107,1.36717
994.89128,1.54287
993.40149,1.70390
991.91171,1.78964
990.42192,1.70276
988.93213,1.81795
987.44234,1.78898
985.95255,1.76004
984.46276,1.78348
982.97297,1.79409
981.48319,1.70738
979.99340,1.66661
978.50361,1.64424
977.01382,1.62190
975.52403,1.70429
974.03424,1.64895
972.54446,1.58996
971.05467,1.49977
969.56488,1.42798
968.07509,1.38836
966.58530,1.34877
965.09551,1.30462
963.60573,1.23478
962.11594,1.33396
960.62615,1.25683
959.13636,1.18892
957.64657,1.12103
956.15678,1.15603
954.66699,1.02575
953.17721,0.96897
951.68742,0.97467
950.19763,0.92621
948.70784,0.87778
947.21805,0.98459
945.72826,0.93898
944.23848,0.99442
942.74869,0.84048
941.25890,0.88129
939.76911,0.85783
938.27932,0.83439
936.78953,1.01121
935.29974,0.87395
933.80996,0.91857
932.32017,0.88239
930.83038,0.91972
929.34059,0.95708
927.85080,0.99079
926.36101,0.94004
924.87123,1.02156
923.38144,1.14537
921.89165,1.11674
920.40186,1.08814
918.91207,1.25060
917.42228,1.34697
915.93250,1.40479
914.44271,1.43692
912.95292,1.51776
911.46313,1.59863
909.97334,1.59595
908.48355,1.63554
906.99376,1.76149
905.50398,1.89483
904.01419,1.84817
902.52440,1.80155
901.03461,1.83211
899.54482,1.91045
898.05503,1.98331
896.56525,1.99741
895.07546,1.99869
893.58567,2.00000
892.09588,1.83969
890.60609,1.97147
889.11630,1.66428
887.62651,1.71897
886.13673,1.65246
884.64694,1.58597
883.15715,1.53789
881.66736,1.53207
880.17757,1.35363
878.68778,1.27348
877.19800,1.19337
875.70821,1.15093
874.21842,1.05526
872.72863,1.00370
871.23884,0.85114
869.74905,0.84464
868.25927,0.83817
866.76948,0.73162
865.27969,0.66735
863.78990,0.63984
862.30011,0.49664
860.81032,0.50133
859.32053,0.50605
857.83075,0.51356
856.34096,0.48068
854.85117,0.39640
853.36138,0.33971
851.87159,0.32345
850.38180,0.30722
848.89202,0.32775
847.40223,0.19218
845.91244,0.18890
844.42265,0.18197
842.93286,0.17506
841.44307,0.11860
839.95329,0.14481
838.46350,0.12881
836.97371,0.15693
835.48392,0.10700
833.99413,0.05710
832.50434,0.09449
831.01455,0.11720
829.52477,0.17117
828.03498,0.13333
826.54519,0.15705
825.05540,0.18080
823.56561,0.10998
822.07582,0.05389
820.58604,0.06578
819.09625,0.06668
817.60646,0.06762
816.11667,0.10348
814.62688,0.05671
813.13709,0.09997
811.64730,0.09184
810.15752,0.04791
808.66773,0.00401
807.17794,0.04951
805.68815,0.12075
804.19836,0.07629
802.70857,0.12463
801.21879,0.17300
799.72900,0.15986
798.23921,0.15226
796.74942,0.19428
795.25963,0.20786
793.76984,0.22147
792.28006,0.20296
790.79027,0.31123
789.30048,0.24869
787.81069,0.28354
786.32090,0.29270
784.83111,0.30189
783.34132,0.23396
781.85154,0.25790
780.36175,0.34065
778.87196,0.34719
777.38217,0.35377
775.89238,0.40722
774.40259,0.44232
772.91281,0.42235
771.42302,0.44557
769.93323,0.46882
768.44344,0.48017
766.95365,0.36296
765.46386,0.43313
763.97407,0.38394
762.48429,0.35958
760.99450,0.33525
759.50471,0.28431
758.01492,0.21319
756.52513,0.19537
755.03534,0.18860
753.54556,0.18186
752.05577,0.15310
750.56598,0.17030
749.07619,0.03506
747.58640,0.03487
746.09661,0.03470
744.60683,0.09242
743.11704,0.11343
741.62725,0.04814
740.13746,0.09125
738.64767,0.13439
737.15788,0.06184
735.66809,0.00401
734.17831,0.06024
732.68852,0.10181
731.19873,0.14340
729.70894,0.03257
728.21915,0.03381
726.72936,0.04426
725.23958,0.10618
723.74979,0.09373
722.26000,0.08131
720.77021,0.08085
719.28042,0.04737
717.79063,0.08371
716.30084,0.08151
714.81106,0.07933
713.32127,0.05882
711.83148,0.10813
710.34169,0.11706
708.85190,0.08194
707.36211,0.04685
705.87233,0.08893
704.38254,0.03185
702.89275,0.07582
701.40296,0.06564
699.91317,0.05549
698.42338,0.11975
696.93360,0.25752
695.44381,0.28695
693.95402,0.25762
692.46423,0.22832
690.97444,0.16783
689.48465,0.08164
687.99486,0.01019
686.50508,0.02693
685.01529,0.04369
683.52550,0.08253
682.03571,0.05894
680.54592,0.10886
679.05613,0.08074
677.56635,0.05265
676.07656,0.05856
674.58677,0.05349
673.09698,0.09620
671.60719,0.10771
670.11740,0.11926
668.62761,0.15287
667.13783,0.07814
665.64804,0.08150
664.15825,0.08489
662.66846,0.16087
661.17867,0.06788
659.68888,0.02452
658.19910,0.01425
656.70931,0.00401
655.21952,0.08044
653.72973,0.11649
652.23994,0.08461
650.75015,0.06469
649.26037,0.04480
647.77058,0.04974
646.28079,0.19247
644.79100,0.25441
643.30121,0.18779
641.81142,0.12121
640.32163,0.14098
638.83185,0.05792
637.34206,0.04470
635.85227,0.05354
634.36248,0.06241
632.87269,0.09886
631.38290,0.15554
629.89312,0.06898
628.40333,0.09541
626.91354,0.12188
625.42375,0.09969
623.93396,0.10325
622.44417,0.07745
620.95438,0.05168
619.46460,0.09022
617.97481,0.09390
616.48502,0.07739
614.99523,0.10041
613.50544,0.12346
612.01565,0.09418
610.52587,0.04473
609.03608,0.11103
607.54629,0.10939
606.05650,0.10779
604.56671,0.14478
603.07692,0.06057
601.58714,0.06456
600.09735,0.06858
598.60756,0.05610
597.11777,0.13548
595.62798,0.09734
594.13819,0.07575
592.64840,0.05420
591.15862,0.12268
589.66883,0.12322
588.17904,0.10543
586.68925,0.18502
585.19946,0.26463
583.70967,0.14773
582.21989,0.24761
580.73010,0.26945
579.24031,0.29132
577.75052,0.18188
576.26073,0.24697
574.77094,0.34148
573.28115,0.33959
571.79137,0.33772
570.30158,0.44701
568.81179,0.50123
567.32200,0.50036
565.83221,0.49953
564.34242,0.59057
562.85264,0.51999
561.36285,0.66619
559.87306,0.70496
558.38327,0.74377
556.89348,0.75964
555.40369,0.73145
553.91391,0.76115
552.42412,0.79089
550.93433,0.77564
549.44454,0.82472
547.95475,0.88117
546.46496,0.91377
544.97517,0.94640
543.48539,0.98458
541.99560,0.95848
540.50581,0.98294
539.01602,1.00741
537.52623,0.99610
536.03644,1.07850
534.54666,1.11684
533.05687,1.10562
531.56708,1.09442
530.07729,0.99876
528.58750,1.01885
527.09771,0.98019
525.60792,0.94155
524.11814,0.84601
522.62835,0.77804
521.13856,0.81113
519.64877,0.82037
518.15898,0.82963
516.66919,0.70852
515.17941,0.62967
513.68962,0.66658
512.19983,0.70351
510.71004,0.62108
509.22025,0.54051
507.73046,0.53712
506.24068,0.49611
504.75089,0.45512
503.26110,0.43896
501.77131,0.40078
500.28152,0.34610
498.79173,0.29146
497.30194,0.28827
495.81216,0.27041
494.32237,0.25442
492.83258,0.23846
491.34279,0.27028
489.85300,0.27275
488.36321,0.22748
486.87343,0.17490
485.38364,0.12235
483.89385,0.13044
482.40406,0.19550
480.91427,0.18344
479.42448,0.17141
477.93469,0.07859
476.44491,0.12172
474.95512,0.08681
473.46533,0.05194
471.97554,0.11720
470.48575,0.12738
468.99596,0.10270
467.50618,0.10743
466.01639,0.11219
464.52660,0.09677
463.03681,0.01893
461.54702,0.08807
460.05723,0.15723
458.56745,0.20989
457.07766,0.17625
455.58787,0.20692
454.09808,0.23763
452.60829,0.19489
451.11850,0.22749
449.62871,0.23164
448.13893,0.23583
446.64914,0.23178
445.15935,0.37470
443.66956,0.41847
442.17977,0.43195
440.68998,0.44546
439.20020,0.48748
437.71041,0.57360
436.22062,0.56699
434.73083,0.56042
433.24104,0.58969
431.75125,0.66307
430.26146,0.71719
428.77168,0.77134
427.28189,0.92380
425.79210,0.96607
424.30231,1.04878
422.81252,1.13151
421.32273,1.37960
419.83295,1.58362
418.34316,1.45797
416.85337,1.33234
415.36358,0.95417
413.87379,0.91401
412.38400,0.84817
410.89422,0.78235
409.40443,0.98658
407.91464,1.02001
406.42485,1.03693
404.93506,0.99144
403.44527,0.94597
401.95548,0.96666
400.46570,0.85879
398.97591,0.84004
397.48612,0.82132
395.99633,0.87152
394.50654,0.81152
393.01675,0.81218
391.52697,0.81286
390.03718,0.83378
388.54739,0.82717
387.05760,0.84906
385.56781,0.87098
384.07802,0.82588
382.58824,0.76428
381.09845,0.78996
379.60866,0.81567
378.11887,0.72844
376.62908,0.66512
375.13929,0.61928
373.64950,0.57347
372.15972,0.56534
370.66993,0.45254
369.18014,0.44263
367.69035,0.43275
366.20056,0.39902
364.71077,0.35613
363.22099,0.35276
361.73120,0.34943
360.24141,0.20009
358.75162,0.14997
357.26183,0.15223
355.77204,0.15452
354.28225,0.04570
352.79247,0.10224
351.30268,0.13400
349.81289,0.16579
348.32310,0.05526
346.83331,0.04945
345.34352,0.03449
343.85374,0.01956
342.36395,0.09650
340.87416,0.10366
339.38437,0.07045
337.89458,0.03726
336.40479,0.02982
334.91501,0.07751
333.42522,0.06737
331.93543,0.05726
330.44564,0.00401
328.95585,0.00309
327.46606,0.05520
325.97627,0.10734
324.48649,0.03092
322.99670,0.03719
321.50691,0.05084
320.01712,0.06452
318.52733,0.01577
317.03754,0.03106
315.54776,0.05465
314.05797,0.07826
312.56818,0.01833
311.07839,0.07230
309.58860,0.03814
308.09881,0.00401
306.60902,0.08972
305.11924,0.14056
303.62945,0.08490
302.13966,0.02926
300.64987,0.00401
299.16008,0.00401
