1778.52000,0.00189
1777.03021,0.02226
1775.54042,0.02730
1774.05063,0.01394
1772.56085,0.02641
1771.07106,0.04627
1769.58127,0.02747
1768.09148,0.03203
1766.60169,0.01757
1765.11190,0.01789
1763.62212,0.01332
1762.13233,0.01368
1760.64254,0.02698
1759.15275,0.02494
1757.66296,0.03092
1756.17317,0.02770
1754.68339,0.01101
1753.19360,0.02013
1751.70381,0.00902
1750.21402,0.02557
1748.72423,0.02433
1747.23444,0.02435
1745.74465,0.02685
1744.25487,0.00482
1742.76508,0.02699
1741.27529,0.01541
1739.78550,0.03886
1738.29571,0.02426
1736.80592,0.02750
1735.31614,0.02462
1733.82635,0.03283
1732.33656,0.02755
1730.84677,0.01923
1729.35698,0.01523
1727.86719,0.02477
1726.37740,0.00424
1724.88762,0.00524
1723.39783,0.01178
1721.90804,0.00546
1720.41825,0.01452
1718.92846,0.02975
1717.43867,0.01675
1715.94889,0.02343
1714.45910,0.00189
1712.96931,0.00649
1711.47952,0.02217
1709.98973,0.03297
1708.49994,0.01615
1707.01016,0.01472
1705.52037,0.01331
1704.03058,0.01070
1702.54079,0.00198
1701.05100,0.02337
1699.56121,0.01409
1698.07142,0.01036
1696.58164,0.02323
1695.09185,0.03921
1693.60206,0.01590
1692.11227,0.01289
1690.62248,0.01789
1689.13269,0.02169
1687.64291,0.02183
1686.15312,0.03489
1684.66333,0.03017
1683.17354,0.00890
1681.68375,0.02941
1680.19396,0.02354
1678.70417,0.01524
1677.21439,0.01495
1675.72460,0.02022
1674.23481,0.03227
1672.74502,0.02776
1671.25523,0.01959
1669.76544,0.03847
1668.27566,0.05677
1666.78587,0.04930
1665.29608,0.01913
1663.80629,0.04733
1662.31650,0.03625
1660.82671,0.05959
1659.33693,0.05962
1657.84714,0.03696
1656.35735,0.04134
1654.86756,0.00337
1653.37777,0.03237
1651.88798,0.04543
1650.39819,0.04132
1648.90841,0.04830
1647.41862,0.02889
1645.92883,0.02271
1644.43904,0.01655
1642.94925,0.03284
1641.45946,0.02521
1639.96968,0.04340
1638.47989,0.04687
1636.99010,0.05467
1635.50031,0.04284
1634.01052,0.05990
1632.52073,0.04751
1631.03094,0.05112
1629.54116,0.04861
1628.05137,0.05595
1626.56158,0.05903
1625.07179,0.03694
1623.58200,0.02164
1622.09221,0.00883
1620.60243,0.05131
1619.11264,0.03240
1617.62285,0.03564
1616.13306,0.05056
1614.64327,0.04095
1613.15348,0.05163
1611.66370,0.02733
1610.17391,0.03315
1608.68412,0.02241
1607.19433,0.05285
1605.70454,0.04279
1604.21475,0.04165
1602.72496,0.04054
1601.23518,0.02871
1599.74539,0.01383
1598.25560,0.02846
1596.76581,0.05356
1595.27602,0.03263
1593.78623,0.04549
1592.29645,0.03259
1590.80666,0.00867
1589.31687,0.02223
1587.82708,0.02415
1586.33729,0.02364
1584.84750,0.03544
1583.35771,0.04911
1581.86793,0.02534
1580.37814,0.05196
1578.88835,0.04175
1577.39856,0.03342
1575.90877,0.00300
1574.41898,0.03279
1572.92920,0.03007
1571.43941,0.01324
1569.94962,0.01886
1568.45983,0.02450
1566.97004,0.00591
1565.48025,0.03955
1563.99047,0.02224
1562.50068,0.00189
1561.01089,0.04917
1559.52110,0.02093
1558.03131,0.02159
1556.54152,0.03701
1555.05173,0.01868
1553.56195,0.02985
1552.07216,0.01649
1550.58237,0.01666
1549.09258,0.06415
1547.60279,0.04903
1546.11300,0.06955
1544.62322,0.06307
1543.13343,0.05724
1541.64364,0.04160
1540.15385,0.04565
1538.66406,0.04972
1537.17427,0.04338
1535.68448,0.01679
1534.19470,0.02586
1532.70491,0.04170
1531.21512,0.01766
1529.72533,0.05567
1528.23554,0.04027
1526.74575,0.05008
1525.25597,0.05132
1523.76618,0.05198
1522.27639,0.02502
1520.78660,0.02142
1519.29681,0.00189
1517.80702,0.01830
1516.31724,0.02552
1514.82745,0.02417
1513.33766,0.02715
1511.84787,0.03015
1510.35808,0.02151
1508.86829,-0.00000
1507.37850,0.01792
1505.88872,0.01683
1504.39893,0.00594
1502.90914,0.02210
1501.41935,0.04136
1499.92956,0.01151
1498.43977,0.01362
1496.94999,0.00225
1495.46020,0.03267
1493.97041,0.04285
1492.48062,0.06534
1490.99083,0.06758
1489.50104,0.07968
1488.01125,0.08167
1486.52147,0.08369
1485.03168,0.13395
1483.54189,0.15353
1482.05210,0.17681
1480.56231,0.18477
1479.07252,0.20197
1477.58274,0.20999
1476.09295,0.24996
1474.60316,0.26847
1473.11337,0.26981
1471.62358,0.23186
1470.13379,0.25291
1468.64401,0.24081
1467.15422,0.21585
1465.66443,0.22069
1464.17464,0.22557
1462.68485,0.16568
1461.19506,0.16784
1459.70527,0.12704
1458.21549,0.08995
1456.72570,0.06517
1455.23591,0.07604
1453.74612,0.06052
1452.25633,0.05241
1450.76654,0.06704
1449.27676,0.05468
1447.78697,0.04295
1446.29718,0.05091
1444.80739,0.04937
1443.31760,0.04787
1441.82781,0.03502
1440.33802,0.02282
1438.84824,0.03521
1437.35845,0.05008
1435.86866,0.01830
1434.37887,0.02340
1432.88908,0.01378
1431.39929,0.02753
1429.90951,0.03210
1428.41972,0.00905
1426.92993,0.05175
1425.44014,0.06560
1423.95035,0.05553
1422.46056,0.04549
1420.97078,0.08154
1419.48099,0.08322
1417.99120,0.10519
1416.50141,0.11552
1415.01162,0.10868
1413.52183,0.10248
1412.03204,0.11289
1410.54226,0.13807
1409.05247,0.14546
1407.56268,0.13200
1406.07289,0.16708
1404.58310,0.15306
1403.09331,0.13907
1401.60353,0.15949
1400.11374,0.16336
1398.62395,0.20041
1397.13416,0.19328
1395.64437,0.20337
1394.15458,0.21103
1392.66479,0.18248
1391.17501,0.21905
1389.68522,0.19179
1388.19543,0.18727
1386.70564,0.19260
1385.21585,0.19796
1383.72606,0.19844
1382.23628,0.18420
1380.74649,0.18657
1379.25670,0.20186
1377.76691,0.19630
1376.27712,0.22516
1374.78733,0.30318
1373.29755,0.35113
1371.80776,0.49000
1370.31797,0.60556
1368.82818,0.66987
1367.33839,0.73420
1365.84860,0.85046
1364.35881,0.88321
1362.86903,0.90678
1361.37924,0.99057
1359.88945,0.99761
1358.39966,0.96230
1356.90987,0.89324
1355.42008,0.81376
1353.93030,0.69624
1352.44051,0.64814
1350.95072,0.60006
1349.46093,0.55079
1347.97114,0.47452
1346.48135,0.38292
1344.99156,0.28827
1343.50178,0.25999
1342.01199,0.24769
1340.52220,0.20042
1339.03241,0.18327
1337.54262,0.15324
1336.05283,0.14720
1334.56305,0.14118
1333.07326,0.14317
1331.58347,0.12063
1330.09368,0.08214
1328.60389,0.08421
1327.11410,0.09429
1325.62432,0.04790
1324.13453,0.01320
1322.64474,0.03749
1321.15495,0.02065
1319.66516,0.02381
1318.17537,0.02698
1316.68558,0.02988
1315.19580,0.03895
1313.70601,0.01426
1312.21622,0.00189
1310.72643,0.01923
1309.23664,0.03967
1307.74685,0.01715
1306.25707,0.04685
1304.76728,0.02991
1303.27749,0.01299
1301.78770,0.01452
1300.29791,0.01547
1298.80812,0.01767
1297.31834,0.01314
1295.82855,0.00250
1294.33876,0.02873
1292.84897,0.00463
1291.35918,0.03706
1289.86939,0.01946
1288.37960,0.00189
1286.88982,0.02137
1285.40003,0.01446
1283.91024,0.00574
1282.42045,0.00503
1280.93066,0.00189
1279.44087,0.00440
1277.95109,0.01676
1276.46130,0.00765
1274.97151,0.01914
1273.48172,0.03066
1271.99193,0.01181
1270.50214,0.03597
1269.01235,0.04174
1267.52257,0.02849
1266.03278,0.06686
1264.54299,0.04507
1263.05320,0.07796
1261.56341,0.05929
1260.07362,0.04065
1258.58384,0.06748
1257.09405,0.06179
1255.60426,0.04507
1254.11447,0.07935
1252.62468,0.05163
1251.13489,0.04298
1249.64511,0.05461
1248.15532,0.02390
1246.66553,0.01932
1245.17574,0.01476
1243.68595,0.01115
1242.19616,0.03152
1240.70637,0.02366
1239.21659,0.00785
1237.72680,0.00189
1236.23701,0.02709
1234.74722,0.02039
1233.25743,0.01555
1231.76764,0.01075
1230.27786,0.00842
1228.78807,0.02823
1227.29828,0.05483
1225.80849,0.03845
1224.31870,0.03992
1222.82891,0.02360
1221.33912,0.01775
1219.84934,0.01039
1218.35955,0.00306
1216.86976,0.02615
1215.37997,0.04436
1213.89018,0.02882
1212.40039,0.02005
1210.91061,0.03097
1209.42082,0.04130
1207.93103,0.03139
1206.44124,0.02151
1204.95145,0.04051
1203.46166,0.03314
1201.97188,0.02395
1200.48209,0.00189
1198.99230,0.02966
1197.50251,0.02982
1196.01272,0.00974
1194.52293,0.01487
1193.03314,0.02002
1191.54336,0.03380
1190.05357,0.04085
1188.56378,0.01538
1187.07399,0.01450
1185.58420,0.00750
1184.09441,0.02448
1182.60463,0.02030
1181.11484,0.01615
1179.62505,0.00189
1178.13526,0.00601
1176.64547,0.03227
1175.15568,0.04259
1173.66589,0.03758
1172.17611,0.03014
1170.68632,0.02273
1169.19653,0.01535
1167.70674,0.02457
1166.21695,0.04365
1164.72716,0.02836
1163.23738,0.04012
1161.74759,0.02488
1160.25780,0.04959
1158.76801,0.02642
1157.27822,0.00328
1155.78843,0.02377
1154.29865,0.05719
1152.80886,0.08203
1151.31907,0.09462
1149.82928,0.08881
1148.33949,0.08302
1146.84970,0.08955
1145.35991,0.09610
1143.87013,0.09039
1142.38034,0.08656
1140.89055,0.06923
1139.40076,0.07405
1137.91097,0.12250
1136.42118,0.12061
1134.93140,0.10094
1133.44161,0.08129
1131.95182,0.11572
1130.46203,0.12131
1128.97224,0.10788
1127.48245,0.12397
1125.99266,0.13823
1124.50288,0.15498
1123.01309,0.16439
1121.52330,0.17382
1120.03351,0.21031
1118.54372,0.17066
1117.05393,0.20904
1115.56415,0.22103
1114.07436,0.21340
1112.58457,0.23651
1111.09478,0.25964
1109.60499,0.27051
1108.11520,0.30598
1106.62542,0.35191
1105.13563,0.40340
1103.64584,0.45123
1102.15605,0.47882
1100.66626,0.47051
1099.17647,0.46222
1097.68668,0.47392
1096.19690,0.55382
1094.70711,0.58400
1093.21732,0.56630
1091.72753,0.59899
1090.23774,0.61727
1088.74795,0.63558
1087.25817,0.68493
1085.76838,0.67964
1084.27859,0.65228
1082.78880,0.68451
1081.29901,0.71247
1079.80922,0.72388
1078.31943,0.73193
1076.82965,0.74001
1075.33986,0.74535
1073.85007,0.68378
1072.36028,0.66215
1070.87049,0.63871
1069.38070,0.58889
1067.89092,0.59713
1066.40113,0.60539
1064.91134,0.57223
1063.42155,0.53910
1061.93176,0.56126
1060.44197,0.44956
1058.95219,0.44967
1057.46240,0.42893
1055.97261,0.40821
1054.48282,0.38321
1052.99303,0.34842
1051.50324,0.32840
1050.01345,0.32436
1048.52367,0.30071
1047.03388,0.28813
1045.54409,0.27558
1044.05430,0.26858
1042.56451,0.22538
1041.07472,0.19387
1039.58494,0.16914
1038.09515,0.17638
1036.60536,0.18426
1035.11557,0.19216
1033.62578,0.20807
1032.13599,0.18348
1030.64620,0.19883
1029.15642,0.21114
1027.66663,0.22685
1026.17684,0.24259
1024.68705,0.25252
1023.19726,0.24529
1021.70747,0.26571
1020.21769,0.31319
1018.72790,0.35577
1017.23811,0.37597
1015.74832,0.39620
1014.25853,0.42474
1012.76874,0.48709
1011.27896,0.53718
1009.78917,0.59405
1008.29938,0.66692
1006.80959,0.73552
1005.31980,0.80414
1003.83001,0.87770
1002.34022,1.03113
1000.85044,1.20055
999.36065,1.32210
997.87086,1.38993
996.38107,1.45779
994.89128,1.57880
993.40149,1.69063
991.91171,1.77914
990.42192,1.89286
988.93213,1.98819
987.44234,1.98097
985.95255,1.97379
984.46276,1.97584
982.97297,1.95519
981.48319,1.95914
979.99340,1.92135
978.50361,1.96066
977.01382,2.00000
975.52403,1.96905
974.03424,1.90250
972.54446,1.84703
971.05467,1.81186
969.56488,1.68213
968.07509,1.67065
966.58530,1.65920
965.09551,1.61247
963.60573,1.55286
962.11594,1.54118
960.62615,1.44969
959.13636,1.37942
957.64657,1.30917
956.15678,1.30006
954.66699,1.17428
953.17721,1.17382
951.68742,1.09477
950.19763,1.06273
948.70784,1.03072
947.21805,1.09362
945.72826,1.01898
944.23848,1.05491
942.74869,1.00489
941.25890,0.89409
939.76911,0.88773
938.27932,0.88139
936.78953,0.94694
935.29974,0.94249
933.80996,0.93562
932.32017,0.95641
930.83038,0.93700
929.34059,0.91762
927.85080,1.00605
926.36101,0.99747
924.87123,1.04296
923.38144,1.03811
921.89165,1.04834
920.40186,1.05860
918.91207,1.12999
917.42228,1.13569
915.93250,1.19424
914.44271,1.27677
912.95292,1.29299
911.46313,1.30924
909.97334,1.29051
908.48355,1.37069
906.99376,1.46317
905.50398,1.61219
904.01419,1.61966
902.52440,1.62717
901.03461,1.63746
899.54482,1.70674
898.05503,1.69498
896.56525,1.73054
895.07546,1.72405
893.58567,1.71758
892.09588,1.61196
890.60609,1.56840
889.11630,1.53591
887.62651,1.50284
886.13673,1.46273
884.64694,1.42265
883.15715,1.44555
881.66736,1.36038
880.17757,1.28936
878.68778,1.21469
877.19800,1.14004
875.70821,1.05866
874.21842,0.93493
872.72863,0.88923
871.23884,0.80425
869.74905,0.79115
868.25927,0.77808
866.76948,0.69993
865.27969,0.68384
863.78990,0.60943
862.30011,0.59523
860.81032,0.55496
859.32053,0.51472
857.83075,0.46191
856.34096,0.45826
854.85117,0.41288
853.36138,0.35401
851.87159,0.35320
850.38180,0.35243
848.89202,0.24512
847.40223,0.24961
845.91244,0.19211
844.42265,0.19512
842.93286,0.19816
841.44307,0.15977
839.95329,0.09561
838.46350,0.16107
836.97371,0.11969
835.48392,0.12224
833.99413,0.12483
832.50434,0.10809
831.01455,0.09814
829.52477,0.08453
828.03498,0.09920
826.54519,0.09547
825.05540,0.09176
823.56561,0.12002
822.07582,0.06171
820.58604,0.05194
819.09625,0.05602
817.60646,0.06013
816.11667,0.04799
814.62688,0.04017
813.13709,0.03790
811.64730,0.00189
810.15752,0.03089
808.66773,0.05992
807.17794,0.04137
805.68815,0.05357
804.19836,0.10202
802.70857,0.09154
801.21879,0.08109
799.72900,0.13085
798.23921,0.13396
796.74942,0.16228
795.25963,0.17619
793.76984,0.19013
792.28006,0.22222
790.79027,0.26722
789.30048,0.30182
787.81069,0.30020
786.32090,0.29616
784.83111,0.29214
783.34132,0.28753
781.85154,0.32533
780.36175,0.35394
778.87196,0.34665
777.38217,0.33939
775.89238,0.38282
774.40259,0.37898
772.91281,0.37763
771.42302,0.37754
769.93323,0.37747
768.44344,0.38726
766.95365,0.39154
765.46386,0.36821
763.97407,0.31789
762.48429,0.29984
760.99450,0.28181
759.50471,0.24140
758.01492,0.22864
756.52513,0.17907
755.03534,0.14579
753.54556,0.11255
752.05577,0.08516
750.56598,0.07008
749.07619,0.08083
747.58640,0.05874
746.09661,0.03668
744.60683,0.08558
743.11704,0.03010
741.62725,0.03975
740.13746,0.03100
738.64767,0.02228
737.15788,0.05842
735.66809,0.06142
734.17831,0.04111
732.68852,0.03925
731.19873,0.03741
729.70894,0.01411
728.21915,0.00189
726.72936,0.04899
725.23958,0.02057
723.74979,0.01951
722.26000,0.01847
720.77021,0.01470
719.28042,0.04412
717.79063,0.01645
716.30084,0.01521
714.81106,0.01400
713.32127,0.00483
711.83148,0.02087
710.34169,0.01483
708.85190,0.01219
707.36211,0.00958
705.87233,0.02573
704.38254,0.00444
702.89275,0.02666
701.40296,0.01637
699.91317,0.00610
698.42338,0.01059
696.93360,0.02678
695.44381,0.06143
693.95402,0.05771
692.46423,0.05402
690.97444,0.02057
689.48465,0.01970
687.99486,0.02131
686.50508,0.02479
685.01529,0.02830
683.52550,0.01955
682.03571,0.01205
680.54592,0.02927
679.05613,0.01796
677.56635,0.00668
676.07656,0.03829
674.58677,0.00605
673.09698,0.00454
671.60719,0.01747
670.11740,0.03043
668.62761,0.01977
667.13783,0.00237
665.64804,0.00760
664.15825,0.01286
662.66846,0.01692
661.17867,0.03206
659.68888,0.03985
658.19910,0.04184
656.70931,0.04385
655.21952,0.00321
653.72973,0.02880
652.23994,0.00896
650.75015,0.01465
649.26037,0.02036
647.77058,0.06141
646.28079,0.05458
644.79100,0.03058
643.30121,0.01951
641.81142,0.00846
640.32163,0.00972
638.83185,0.03742
637.34206,0.01171
635.85227,0.02564
634.36248,0.03960
632.87269,0.00415
631.38290,0.01967
629.89312,0.03644
628.40333,0.01915
626.91354,0.00189
625.42375,0.05401
623.93396,0.01773
622.44417,0.03398
620.95438,0.05026
619.46460,0.06748
617.97481,0.02578
616.48502,0.07254
614.99523,0.07049
613.50544,0.06848
612.01565,0.09812
610.52587,0.10200
609.03608,0.09300
607.54629,0.08434
606.05650,0.07570
604.56671,0.11100
603.07692,0.10395
601.58714,0.09171
600.09735,0.07949
598.60756,0.03199
597.11777,0.05269
595.62798,0.04024
594.13819,0.05331
592.64840,0.06641
591.15862,0.12652
589.66883,0.10436
588.17904,0.17373
586.68925,0.17895
585.19946,0.18420
583.70967,0.17626
582.21989,0.19354
580.73010,0.20378
579.24031,0.21405
577.75052,0.22342
576.26073,0.26475
574.77094,0.32884
573.28115,0.34658
571.79137,0.36435
570.30158,0.37262
568.81179,0.44418
567.32200,0.46080
565.83221,0.47745
564.34242,0.57918
562.85264,0.59558
561.36285,0.63779
559.87306,0.64840
558.38327,0.65904
556.89348,0.74125
555.40369,0.83578
553.91391,0.83145
552.42412,0.82715
550.93433,0.84559
549.44454,0.89478
547.95475,0.88196
546.46496,0.92597
544.97517,0.97001
543.48539,0.94744
541.99560,0.98079
540.50581,0.95889
539.01602,0.93702
537.52623,1.08713
536.03644,0.95538
534.54666,0.93236
533.05687,0.93976
531.56708,0.94719
530.07729,0.90644
528.58750,0.92590
527.09771,0.88888
525.60792,0.85189
524.11814,0.85055
522.62835,0.80809
521.13856,0.73924
519.64877,0.71311
518.15898,0.68700
516.66919,0.63420
515.17941,0.57775
513.68962,0.58796
512.19983,0.59819
510.71004,0.56576
509.22025,0.46090
507.73046,0.38369
506.24068,0.38236
504.75089,0.38106
503.26110,0.32604
501.77131,0.34905
500.28152,0.30975
498.79173,0.27048
497.30194,0.29480
495.81216,0.25957
494.32237,0.27442
492.83258,0.28930
491.34279,0.23449
489.85300,0.20920
488.36321,0.18638
486.87343,0.18663
485.38364,0.18690
483.89385,0.17768
482.40406,0.21332
480.91427,0.18020
479.42448,0.14710
477.93469,0.12877
476.44491,0.08591
474.95512,0.08391
473.46533,0.08193
471.97554,0.08950
470.48575,0.12965
468.99596,0.10964
467.50618,0.11515
466.01639,0.12068
464.52660,0.14251
463.03681,0.11830
461.54702,0.13742
460.05723,0.15657
458.56745,0.15763
457.07766,0.19188
455.58787,0.20496
454.09808,0.21807
452.60829,0.21801
451.11850,0.25236
449.62871,0.28336
448.13893,0.31439
446.64914,0.35374
445.15935,0.35319
443.66956,0.46445
442.17977,0.48453
440.68998,0.50464
439.20020,0.52937
437.71041,0.58915
436.22062,0.61916
434.73083,0.64920
433.24104,0.71335
431.75125,0.79411
430.26146,0.80642
428.77168,0.81876
427.28189,0.83573
425.79210,0.79806
424.30231,0.84333
422.81252,0.88863
421.32273,0.96528
419.83295,1.02230
418.34316,1.00872
416.85337,0.99517
415.36358,0.91040
413.87379,0.91962
412.38400,0.92119
410.89422,0.92279
409.40443,0.94069
407.91464,0.93651
406.42485,0.99316
404.93506,0.98105
403.44527,0.96896
401.95548,0.97471
400.46570,0.91232
398.97591,0.96019
397.48612,1.00809
395.99633,0.99368
394.50654,0.93938
393.01675,0.94099
391.52697,0.94263
390.03718,0.91174
388.54739,0.91343
387.05760,0.86079
385.56781,0.80819
384.07802,0.76942
382.58824,0.69445
381.09845,0.70825
379.60866,0.72208
378.11887,0.67789
376.62908,0.63373
375.13929,0.60649
373.64950,0.57927
372.15972,0.47992
370.66993,0.39103
369.18014,0.39154
367.69035,0.39206
366.20056,0.34686
364.71077,0.36003
363.22099,0.33700
361.73120,0.31398
360.24141,0.19458
358.75162,0.19250
357.26183,0.20550
355.77204,0.21852
354.28225,0.18643
352.79247,0.16112
351.30268,0.14720
349.81289,0.13331
348.32310,0.11053
346.83331,0.07550
345.34352,0.07275
343.85374,0.07001
342.36395,0.06516
340.87416,0.06770
339.38437,0.07027
337.89458,0.07286
336.40479,0.07180
334.91501,0.03268
333.42522,0.02369
331.93543,0.01472
330.44564,0.03283
328.95585,0.05773
327.46606,0.06914
325.97627,0.08058
324.48649,0.03492
322.99670,0.05870
321.50691,0.04780
320.01712,0.03693
318.52733,0.00551
317.03754,0.01035
315.54776,0.01276
314.05797,0.01520
312.56818,0.01582
311.07839,0.03305
309.58860,0.01684
308.09881,0.00065
306.60902,0.03860
305.11924,0.07841
303.62945,0.04916
302.13966,0.01994
300.64987,0.02902
299.16008,0.00189
