1778.52000,0.02194
1777.03021,0.02533
1775.54042,0.03747
1774.05063,0.04309
1772.56085,0.04439
1771.07106,0.04788
1769.58127,0.02853
1768.09148,0.02664
1766.60169,0.00298
1765.11190,0.05125
1763.62212,0.04072
1762.13233,0.05636
1760.64254,0.01102
1759.15275,0.02998
1757.66296,0.04897
1756.17317,0.02876
1754.68339,0.05325
1753.19360,0.03528
1751.70381,0.03258
1750.21402,0.01466
1748.72423,0.00657
1747.23444,0.03010
1745.74465,0.01989
1744.25487,0.02059
1742.76508,0.00825
1741.27529,0.02317
1739.78550,0.03485
1738.29571,0.00298
1736.80592,0.04265
1735.31614,0.06056
1733.82635,0.00223
1732.33656,0.00385
1730.84677,0.00768
1729.35698,0.00608
1727.86719,0.02303
1726.37740,0.02803
1724.88762,0.05265
1723.39783,0.00541
1721.90804,0.01811
1720.41825,0.05698
1718.92846,0.05339
1717.43867,0.00298
1715.94889,0.02096
1714.45910,0.04223
1712.96931,0.04719
1711.47952,0.02821
1709.98973,0.03322
1708.49994,0.04261
1707.01016,0.04114
1705.52037,0.03969
1704.03058,0.04263
1702.54079,0.03579
1701.05100,0.05185
1699.56121,0.02001
1698.07142,0.04484
1696.58164,0.04246
1695.09185,0.03793
1693.60206,0.06066
1692.11227,0.06708
1690.62248,0.04956
1689.13269,0.01898
1687.64291,0.08213
1686.15312,0.02329
1684.66333,0.04836
1683.17354,0.04731
1681.68375,0.06589
1680.19396,0.04093
1678.70417,0.09660
1677.21439,0.05426
1675.72460,0.03264
1674.23481,0.06661
1672.74502,0.01563
1671.25523,0.03549
1669.76544,0.08261
1668.27566,0.06440
1666.78587,0.13445
1665.29608,0.09558
1663.80629,0.05892
1662.31650,0.06151
1660.82671,0.08047
1659.33693,0.05805
1657.84714,0.05200
1656.35735,0.08302
1654.86756,0.08900
1653.37777,0.08086
1651.88798,0.06946
1650.39819,0.07444
1648.90841,0.11104
1647.41862,0.05942
1645.92883,0.06556
1644.43904,0.07174
1642.94925,0.05288
1641.45946,0.05256
1639.96968,0.08060
1638.47989,0.06291
1636.99010,0.06704
1635.50031,0.05485
1634.01052,0.05031
1632.52073,0.07195
1631.03094,0.06637
1629.54116,0.06845
1628.05137,0.05530
1626.56158,0.04981
1625.07179,0.07702
1623.58200,0.06395
1622.09221,0.06616
1620.60243,0.04225
1619.11264,0.04778
1617.62285,0.07513
1616.13306,0.06655
1614.64327,0.05255
1613.15348,0.05710
1611.66370,0.03988
1610.17391,0.02923
1608.68412,0.02841
1607.19433,0.04614
1605.70454,0.04864
1604.21475,0.03210
1602.72496,0.01559
1601.23518,0.03669
1599.74539,0.03820
1598.25560,0.04628
1596.76581,0.03369
1595.27602,0.02657
1593.78623,0.04671
1592.29645,0.05925
1590.80666,0.04132
1589.31687,0.03975
1587.82708,0.01860
1586.33729,0.03016
1584.84750,0.04065
1583.35771,0.03157
1581.86793,0.04429
1580.37814,0.04833
1578.88835,0.03823
1577.39856,0.03688
1575.90877,0.03337
1574.41898,0.01464
1572.92920,0.01336
1571.43941,0.03716
1569.94962,0.01905
1568.45983,0.00097
1566.97004,0.02268
1565.48025,0.01064
1563.99047,0.05527
1562.50068,0.00298
1561.01089,0.04150
1559.52110,0.02776
1558.03131,0.02929
1556.54152,0.02105
1555.05173,0.02155
1553.56195,0.02643
1552.07216,0.03461
1550.58237,0.01884
1549.09258,0.03034
1547.60279,0.05603
1546.11300,0.06213
1544.62322,0.04321
1543.13343,0.03738
1541.64364,0.01088
1540.15385,0.03997
1538.66406,0.06908
1537.17427,0.00780
1535.68448,0.03588
1534.19470,0.05526
1532.70491,0.03328
1531.21512,0.02440
1529.72533,0.03624
1528.23554,0.04484
1526.74575,0.04584
1525.25597,0.03597
1523.76618,0.00652
1522.27639,0.01413
1520.78660,0.00979
1519.29681,0.02617
1517.80702,0.03278
1516.31724,0.01980
1514.82745,0.01556
1513.33766,0.02225
1511.84787,0.02896
1510.35808,0.01609
1508.86829,0.02830
1507.37850,0.06232
1505.88872,0.02883
1504.39893,0.05201
1502.90914,0.03710
1501.41935,0.06687
1499.92956,0.00298
1498.43977,0.01742
1496.94999,0.04823
1495.46020,0.06926
1493.97041,0.05763
1492.48062,0.07109
1490.99083,0.05407
1489.50104,0.10244
1488.01125,0.09637
1486.52147,0.09032
1485.03168,0.12243
1483.54189,0.17309
1482.05210,0.15950
1480.56231,0.23635
1479.07252,0.20538
1477.58274,0.23326
1476.09295,0.19908
1474.60316,0.25425
1473.11337,0.27785
1471.62358,0.27316
1470.13379,0.31643
1468.64401,0.25623
1467.15422,0.24072
1465.66443,0.22796
1464.17464,0.21523
1462.68485,0.21396
1461.19506,0.17242
1459.70527,0.17338
1458.21549,0.11228
1456.72570,0.10567
1455.23591,0.11325
1453.74612,0.10125
1452.25633,0.09799
1450.76654,0.11218
1449.27676,0.11333
1447.78697,0.09926
1446.29718,0.11244
1444.80739,0.09787
1443.31760,0.08333
1441.82781,0.07808
1440.33802,0.06631
1438.84824,0.03932
1437.35845,0.03306
1435.86866,0.04970
1434.37887,0.00645
1432.88908,0.04711
1431.39929,0.07254
1429.90951,0.06641
1428.41972,0.10170
1426.92993,0.10978
1425.44014,0.16691
1423.95035,0.14835
1422.46056,0.12982
1420.97078,0.11949
1419.48099,0.14841
1417.99120,0.15556
1416.50141,0.18670
1415.01162,0.17974
1413.52183,0.19896
1412.03204,0.19096
1410.54226,0.20805
1409.05247,0.16089
1407.56268,0.18565
1406.07289,0.21916
1404.58310,0.20857
1403.09331,0.19801
1401.60353,0.19674
1400.11374,0.21946
1398.62395,0.24983
1397.13416,0.25517
1395.64437,0.23548
1394.15458,0.26049
1392.66479,0.25719
1391.17501,0.25719
1389.68522,0.24197
1388.19543,0.21587
1386.70564,0.22957
1385.21585,0.24329
1383.72606,0.23471
1382.23628,0.21744
1380.74649,0.24159
1379.25670,0.22655
1377.76691,0.21045
1376.27712,0.28152
1374.78733,0.31994
1373.29755,0.42702
1371.80776,0.42192
1370.31797,0.56935
1368.82818,0.62803
1367.33839,0.68674
1365.84860,0.78306
1364.35881,0.90228
1362.86903,0.97250
1361.37924,1.04711
1359.88945,1.04004
1358.39966,1.04606
1356.90987,0.95298
1355.42008,0.85884
1353.93030,0.82572
1352.44051,0.79917
1350.95072,0.77265
1349.46093,0.62414
1347.97114,0.54320
1346.48135,0.44377
1344.99156,0.40319
1343.50178,0.35501
1342.01199,0.33845
1340.52220,0.29141
1339.03241,0.29451
1337.54262,0.23010
1336.05283,0.22236
1334.56305,0.21465
1333.07326,0.22221
1331.58347,0.19168
1330.09368,0.13829
1328.60389,0.14593
1327.11410,0.10567
1325.62432,0.08395
1324.13453,0.09059
1322.64474,0.06892
1321.15495,0.06145
1319.66516,0.06544
1318.17537,0.06945
1316.68558,0.07840
1315.19580,0.09718
1313.70601,0.03427
1312.21622,0.03458
1310.72643,0.05453
1309.23664,0.03528
1307.74685,0.05637
1306.25707,0.06550
1304.76728,0.06049
1303.27749,0.05551
1301.78770,0.04947
1300.29791,0.06415
1298.80812,0.01022
1297.31834,0.01189
1295.82855,0.03972
1294.33876,0.02401
1292.84897,0.01812
1291.35918,0.03078
1289.86939,0.04184
1288.37960,0.05292
1286.88982,0.01446
1285.40003,0.02831
1283.91024,0.00298
1282.42045,0.01725
1280.93066,0.02284
1279.44087,0.03717
1277.95109,0.02973
1276.46130,0.04193
1274.97151,0.04435
1273.48172,0.04680
1271.99193,0.03403
1270.50214,0.02455
1269.01235,0.03688
1267.52257,0.10153
1266.03278,0.03766
1264.54299,0.07403
1263.05320,0.05706
1261.56341,0.07007
1260.07362,0.08310
1258.58384,0.09998
1257.09405,0.08420
1255.60426,0.06518
1254.11447,0.06252
1252.62468,0.03375
1251.13489,0.02134
1249.64511,0.06343
1248.15532,0.03474
1246.66553,0.04692
1245.17574,0.05913
1243.68595,0.03051
1242.19616,0.06075
1240.70637,0.04308
1239.21659,0.04723
1237.72680,0.02525
1236.23701,0.05778
1234.74722,0.03694
1233.25743,0.04065
1231.76764,0.04438
1230.27786,0.10316
1228.78807,0.09115
1227.29828,0.06391
1225.80849,0.06938
1224.31870,0.00298
1222.82891,0.03126
1221.33912,0.06175
1219.84934,0.04924
1218.35955,0.03675
1216.86976,0.07604
1215.37997,0.05434
1213.89018,0.04465
1212.40039,0.06332
1210.91061,0.02427
1209.42082,0.05933
1207.93103,0.03940
1206.44124,0.01950
1204.95145,0.04483
1203.46166,0.01136
1201.97188,0.00298
1200.48209,0.02808
1198.99230,0.04231
1197.50251,0.00973
1196.01272,0.00332
1194.52293,0.01164
1193.03314,0.01999
1191.54336,0.00385
1190.05357,0.00735
1188.56378,0.00760
1187.07399,0.00462
1185.58420,0.01146
1184.09441,0.04448
1182.60463,0.02523
1181.11484,0.00601
1179.62505,0.00643
1178.13526,0.01449
1176.64547,0.00298
1175.15568,0.00902
1173.66589,0.07174
1172.17611,0.00484
1170.68632,0.01586
1169.19653,0.02691
1167.70674,0.05378
1166.21695,0.00878
1164.72716,0.03570
1163.23738,0.04631
1161.74759,0.03189
1160.25780,0.05562
1158.76801,0.06468
1157.27822,0.07376
1155.78843,0.05726
1154.29865,0.08219
1152.80886,0.06902
1151.31907,0.03299
1149.82928,0.06127
1148.33949,0.06779
1146.84970,0.04328
1145.35991,0.01880
1143.87013,0.02430
1142.38034,0.09847
1140.89055,0.08660
1139.40076,0.10525
1137.91097,0.12938
1136.42118,0.09798
1134.93140,0.09275
1133.44161,0.08755
1131.95182,0.15100
1130.46203,0.15565
1128.97224,0.13528
1127.48245,0.14216
1125.99266,0.14471
1124.50288,0.13204
1123.01309,0.11940
1121.52330,0.10678
1120.03351,0.13667
1118.54372,0.15788
1117.05393,0.19109
1115.56415,0.21998
1114.07436,0.22601
1112.58457,0.23098
1111.09478,0.23597
1109.60499,0.27695
1108.11520,0.32775
1106.62542,0.31213
1105.13563,0.40220
1103.64584,0.36920
1102.15605,0.44408
1100.66626,0.44708
1099.17647,0.45011
1097.68668,0.54903
1096.19690,0.54667
1094.70711,0.58028
1093.21732,0.61174
1091.72753,0.64104
1090.23774,0.64477
1088.74795,0.64853
1087.25817,0.64088
1085.76838,0.67573
1084.27859,0.78143
1082.78880,0.72810
1081.29901,0.76631
1079.80922,0.77186
1078.31943,0.80467
1076.82965,0.83751
1075.33986,0.86384
1073.85007,0.74421
1072.36028,0.70087
1070.87049,0.70222
1069.38070,0.70577
1067.89092,0.71753
1066.40113,0.72931
1064.91134,0.74057
1063.42155,0.64618
1061.93176,0.57470
1060.44197,0.60347
1058.95219,0.58542
1057.46240,0.54344
1055.97261,0.50148
1054.48282,0.44538
1052.99303,0.45140
1051.50324,0.44547
1050.01345,0.39272
1048.52367,0.39011
1047.03388,0.39461
1045.54409,0.39913
1044.05430,0.34322
1042.56451,0.30585
1041.07472,0.32625
1039.58494,0.29547
1038.09515,0.31701
1036.60536,0.33749
1035.11557,0.35799
1033.62578,0.29900
1032.13599,0.26617
1030.64620,0.28893
1029.15642,0.30301
1027.66663,0.28116
1026.17684,0.25933
1024.68705,0.29854
1023.19726,0.30727
1021.70747,0.35416
1020.21769,0.29867
1018.72790,0.37829
1017.23811,0.38277
1015.74832,0.38728
1014.25853,0.47243
1012.76874,0.51402
1011.27896,0.64171
1009.78917,0.73130
1008.29938,0.75228
1006.80959,0.83592
1005.31980,0.91960
1003.83001,1.01147
1002.34022,1.13604
1000.85044,1.20618
999.36065,1.32318
997.87086,1.35524
996.38107,1.38733
994.89128,1.56215
993.40149,1.64113
991.91171,1.73539
990.42192,1.73926
988.93213,1.79217
987.44234,1.81733
985.95255,1.84252
984.46276,1.92384
982.97297,1.81890
981.48319,1.79242
979.99340,1.70822
978.50361,1.66001
977.01382,1.61182
975.52403,1.55058
974.03424,1.63971
972.54446,1.53713
971.05467,1.43349
969.56488,1.37889
968.07509,1.37771
966.58530,1.37655
965.09551,1.25994
963.60573,1.23051
962.11594,1.20437
960.62615,1.22728
959.13636,1.21917
957.64657,1.21109
956.15678,1.09899
954.66699,0.99346
953.17721,0.93371
951.68742,0.91212
950.19763,0.92214
948.70784,0.93219
947.21805,0.98803
945.72826,0.94039
944.23848,0.91021
942.74869,0.91928
941.25890,0.88589
939.76911,0.89446
938.27932,0.90306
936.78953,0.92204
935.29974,0.98026
933.80996,0.93175
932.32017,0.94536
930.83038,0.92195
929.34059,0.89858
927.85080,1.01031
926.36101,0.98481
924.87123,1.04975
923.38144,1.11145
921.89165,1.11980
920.40186,1.12817
918.91207,1.21065
917.42228,1.22780
915.93250,1.28963
914.44271,1.34277
912.95292,1.43135
911.46313,1.51995
909.97334,1.59061
908.48355,1.70051
906.99376,1.88669
905.50398,1.89751
904.01419,1.88983
902.52440,1.88218
901.03461,1.83969
899.54482,1.83428
898.05503,1.96615
896.56525,2.00000
895.07546,1.98377
893.58567,1.96756
892.09588,1.88165
890.60609,1.90472
889.11630,1.78618
887.62651,1.73631
886.13673,1.67993
884.64694,1.62357
883.15715,1.56070
881.66736,1.61551
880.17757,1.34026
878.68778,1.29327
877.19800,1.24631
875.70821,1.14108
874.21842,1.06094
872.72863,0.96449
871.23884,0.87242
869.74905,0.82340
868.25927,0.77442
866.76948,0.68678
865.27969,0.63186
863.78990,0.63143
862.30011,0.49594
860.81032,0.49883
859.32053,0.50175
857.83075,0.44260
856.34096,0.43032
854.85117,0.36469
853.36138,0.32087
851.87159,0.29777
850.38180,0.27470
848.89202,0.23532
847.40223,0.22211
845.91244,0.15772
844.42265,0.15872
842.93286,0.15975
841.44307,0.15536
839.95329,0.11396
838.46350,0.10526
836.97371,0.08134
835.48392,0.06235
833.99413,0.04339
832.50434,0.08927
831.01455,0.11339
829.52477,0.06236
828.03498,0.09525
826.54519,0.07968
825.05540,0.06414
823.56561,0.11018
822.07582,0.02225
820.58604,0.00298
819.09625,0.02075
817.60646,0.03855
816.11667,0.00736
814.62688,0.01758
813.13709,0.04200
811.64730,0.06753
810.15752,0.05224
808.66773,0.03697
807.17794,0.02227
805.68815,0.02503
804.19836,0.03108
802.70857,0.04479
801.21879,0.05852
799.72900,0.05485
798.23921,0.09152
796.74942,0.16307
795.25963,0.14477
793.76984,0.12649
792.28006,0.19050
790.79027,0.21422
789.30048,0.21509
787.81069,0.28244
786.32090,0.27302
784.83111,0.26362
783.34132,0.22211
781.85154,0.21657
780.36175,0.25900
778.87196,0.28239
777.38217,0.30580
775.89238,0.36138
774.40259,0.31676
772.91281,0.39636
771.42302,0.38175
769.93323,0.36717
768.44344,0.38039
766.95365,0.34789
765.46386,0.36443
763.97407,0.27642
762.48429,0.26524
760.99450,0.25409
759.50471,0.21191
758.01492,0.15341
756.52513,0.14942
755.03534,0.13891
753.54556,0.12843
752.05577,0.08421
750.56598,0.01931
749.07619,0.05794
747.58640,0.04538
746.09661,0.03286
744.60683,0.03452
743.11704,0.06344
741.62725,0.04664
740.13746,0.02986
738.64767,0.01311
737.15788,0.01055
735.66809,0.00692
734.17831,0.02293
732.68852,0.01337
731.19873,0.00383
729.70894,0.01120
728.21915,0.00444
726.72936,0.01404
725.23958,0.02694
723.74979,0.03388
722.26000,0.04084
720.77021,0.03530
719.28042,0.05593
717.79063,0.02429
716.30084,0.03572
714.81106,0.04717
713.32127,0.06137
711.83148,0.03529
710.34169,0.06588
708.85190,0.06382
707.36211,0.06178
705.87233,0.03145
704.38254,0.03818
702.89275,0.08416
701.40296,0.04356
699.91317,0.00298
698.42338,0.07275
696.93360,0.05213
695.44381,0.08927
693.95402,0.06979
692.46423,0.05033
690.97444,0.08428
689.48465,0.06379
687.99486,0.06076
686.50508,0.04413
685.01529,0.02753
683.52550,0.04963
682.03571,0.00748
680.54592,0.02936
679.05613,0.02894
677.56635,0.02854
676.07656,0.07773
674.58677,0.04306
673.09698,0.00298
671.60719,0.01565
670.11740,0.02835
668.62761,0.04053
667.13783,0.04510
665.64804,0.06278
664.15825,0.08049
662.66846,0.07752
661.17867,0.08330
659.68888,0.04661
658.19910,0.03283
656.70931,0.01907
655.21952,0.01297
653.72973,0.08968
652.23994,0.04224
650.75015,0.02259
649.26037,0.00298
647.77058,0.03588
646.28079,0.04375
644.79100,0.03857
643.30121,0.04922
641.81142,0.05989
640.32163,0.04499
638.83185,0.02903
637.34206,0.04904
635.85227,0.03803
634.36248,0.02705
632.87269,0.04714
631.38290,0.00298
629.89312,0.02179
628.40333,0.02210
626.91354,0.02244
625.42375,0.03044
623.93396,0.02974
622.44417,0.04650
620.95438,0.06329
619.46460,0.01910
617.97481,0.01851
616.48502,0.02230
614.99523,0.04355
613.50544,0.06483
612.01565,0.08177
610.52587,0.01377
609.03608,0.04058
607.54629,0.04126
606.05650,0.04197
604.56671,0.07866
603.07692,0.05219
601.58714,0.06605
600.09735,0.07994
598.60756,0.04810
597.11777,0.08056
595.62798,0.04115
594.13819,0.09109
592.64840,0.14106
591.15862,0.16927
589.66883,0.11144
588.17904,0.12663
586.68925,0.14893
585.19946,0.17125
583.70967,0.21049
582.21989,0.19746
580.73010,0.19698
579.24031,0.19653
577.75052,0.24023
576.26073,0.19354
574.77094,0.24165
573.28115,0.24893
571.79137,0.25624
570.30158,0.34038
568.81179,0.43761
567.32200,0.45535
565.83221,0.47312
564.34242,0.51487
562.85264,0.53814
561.36285,0.60500
559.87306,0.62723
558.38327,0.64948
556.89348,0.71316
555.40369,0.71150
553.91391,0.72185
552.42412,0.73223
550.93433,0.81998
549.44454,0.83476
547.95475,0.81144
546.46496,0.83391
544.97517,0.85640
543.48539,0.94428
541.99560,0.99406
540.50581,0.96325
539.01602,0.93247
537.52623,1.03570
536.03644,1.03983
534.54666,1.07449
533.05687,1.06778
531.56708,1.06110
530.07729,1.04245
528.58750,0.99442
527.09771,0.99544
525.60792,0.99649
524.11814,0.92239
522.62835,0.89081
521.13856,0.80587
519.64877,0.78087
518.15898,0.75591
516.66919,0.77018
515.17941,0.66901
513.68962,0.65774
512.19983,0.64649
510.71004,0.63146
509.22025,0.60665
507.73046,0.61782
506.24068,0.57236
504.75089,0.52693
503.26110,0.44667
501.77131,0.39040
500.28152,0.39680
498.79173,0.40322
497.30194,0.39714
495.81216,0.26689
494.32237,0.26577
492.83258,0.26467
491.34279,0.23038
489.85300,0.19284
488.36321,0.21851
486.87343,0.18538
485.38364,0.15228
483.89385,0.19110
482.40406,0.18529
480.91427,0.16915
479.42448,0.15304
477.93469,0.17454
476.44491,0.11762
474.95512,0.12175
473.46533,0.12589
471.97554,0.11373
470.48575,0.16804
468.99596,0.17445
467.50618,0.15637
466.01639,0.13832
464.52660,0.07072
463.03681,0.10120
461.54702,0.13497
460.05723,0.16877
458.56745,0.18408
457.07766,0.25824
455.58787,0.25181
454.09808,0.24541
452.60829,0.25428
451.11850,0.25011
449.62871,0.24324
448.13893,0.23640
446.64914,0.36413
445.15935,0.39274
443.66956,0.46060
442.17977,0.44079
440.68998,0.42101
439.20020,0.49549
437.71041,0.56672
436.22062,0.60149
434.73083,0.63628
433.24104,0.73048
431.75125,0.67762
430.26146,0.74845
428.77168,0.81930
427.28189,0.83407
425.79210,0.81400
424.30231,0.81085
422.81252,0.80772
421.32273,0.90649
419.83295,1.01072
418.34316,0.97172
416.85337,0.93275
415.36358,1.00329
413.87379,0.87232
412.38400,0.87210
410.89422,0.87191
409.40443,0.89245
407.91464,0.89667
406.42485,0.91834
404.93506,0.94059
403.44527,0.96287
401.95548,0.93887
400.46570,0.93232
398.97591,0.89476
397.48612,0.85722
395.99633,0.94009
394.50654,0.85413
393.01675,0.87277
391.52697,0.89144
390.03718,0.89816
388.54739,0.88529
387.05760,0.85883
385.56781,0.83240
384.07802,0.88280
382.58824,0.77635
381.09845,0.78267
379.60866,0.78903
378.11887,0.82864
376.62908,0.72338
375.13929,0.67426
373.64950,0.62516
372.15972,0.54286
370.66993,0.48455
369.18014,0.47148
367.69035,0.45844
366.20056,0.43180
364.71077,0.38885
363.22099,0.35574
361.73120,0.32264
360.24141,0.22639
358.75162,0.25000
357.26183,0.22516
355.77204,0.20035
354.28225,0.17174
352.79247,0.15188
351.30268,0.14349
349.81289,0.13512
348.32310,0.11861
346.83331,0.02695
345.34352,0.03119
343.85374,0.03545
342.36395,0.06262
340.87416,0.05931
339.38437,0.04514
337.89458,0.03099
336.40479,0.00815
334.91501,0.04417
333.42522,0.02356
331.93543,0.00298
330.44564,0.05030
328.95585,0.00178
327.46606,0.01430
325.97627,0.02684
324.48649,0.03832
322.99670,0.00298
321.50691,0.00228
320.01712,0.00161
318.52733,0.03800
317.03754,0.01123
315.54776,0.01935
314.05797,0.02750
312.56818,0.00081
311.07839,0.03516
309.58860,0.03413
308.09881,0.03312
306.60902,0.00000
305.11924,0.01378
303.62945,0.01996
302.13966,0.02616
300.64987,0.00298
299.16008,0.00298
