1778.52000,0.03361
1777.03021,0.03929
1775.54042,0.00000
1774.05063,0.01885
1772.56085,0.02086
1771.07106,0.05851
1769.58127,0.04182
1768.09148,0.00641
1766.60169,0.05539
1765.11190,0.05003
1763.62212,0.03532
1762.13233,0.05250
1760.64254,0.00785
1759.15275,0.06821
1757.66296,0.05172
1756.17317,0.01277
1754.68339,0.05259
1753.19360,0.02119
1751.70381,0.03105
1750.21402,0.04282
1748.72423,0.03962
1747.23444,0.01582
1745.74465,0.03142
1744.25487,0.04892
1742.76508,0.05519
1741.27529,0.03712
1739.78550,0.07532
1738.29571,0.05917
1736.80592,0.04681
1735.31614,0.03821
1733.82635,0.00902
1732.33656,0.03048
1730.84677,0.05946
1729.35698,0.00785
1727.86719,0.04050
1726.37740,0.05255
1724.88762,0.02714
1723.39783,0.05237
1721.90804,0.05325
1720.41825,0.03541
1718.92846,0.05135
1717.43867,0.06731
1715.94889,0.04017
1714.45910,0.07493
1712.96931,0.04972
1711.47952,0.02829
1709.98973,0.01439
1708.49994,0.06612
1707.01016,0.04008
1705.52037,0.01406
1704.03058,0.07712
1702.54079,0.06522
1701.05100,0.06084
1699.56121,0.04150
1698.07142,0.09154
1696.58164,0.08349
1695.09185,0.09421
1693.60206,0.02622
1692.11227,0.07262
1690.62248,0.07405
1689.13269,0.05863
1687.64291,0.06948
1686.15312,0.05787
1684.66333,0.05940
1683.17354,0.03284
1681.68375,0.05692
1680.19396,0.01916
1678.70417,0.06204
1677.21439,0.11994
1675.72460,0.06351
1674.23481,0.03711
1672.74502,0.06322
1671.25523,0.08560
1669.76544,0.07427
1668.27566,0.13233
1666.78587,0.07418
1665.29608,0.07980
1663.80629,0.07420
1662.31650,0.03113
1660.82671,0.00870
1659.33693,0.05567
1657.84714,0.07079
1656.35735,0.04282
1654.86756,0.08987
1653.37777,0.04695
1651.88798,0.06967
1650.39819,0.07368
1648.90841,0.07958
1647.41862,0.07427
1645.92883,0.06429
1644.43904,0.05433
1642.94925,0.00785
1641.45946,0.06167
1639.96968,0.06115
1638.47989,0.05128
1636.99010,0.06581
1635.50031,0.08787
1634.01052,0.07995
1632.52073,0.05331
1631.03094,0.03608
1629.54116,0.04886
1628.05137,0.11041
1626.56158,0.12887
1625.07179,0.07237
1623.58200,0.06089
1622.09221,0.06818
1620.60243,0.03238
1619.11264,0.00785
1617.62285,0.06532
1616.13306,0.10031
1614.64327,0.01348
1613.15348,0.10664
1611.66370,0.05923
1610.17391,0.05871
1608.68412,0.07884
1607.19433,0.09712
1605.70454,0.02169
1604.21475,0.04752
1602.72496,0.07338
1601.23518,0.01865
1599.74539,0.09330
1598.25560,0.04425
1596.76581,0.01209
1595.27602,0.03808
1593.78623,0.03972
1592.29645,0.01514
1590.80666,0.05058
1589.31687,0.05605
1587.82708,0.07841
1586.33729,0.03519
1584.84750,0.03511
1583.35771,0.04443
1581.86793,0.03504
1580.37814,0.06316
1578.88835,0.05943
1577.39856,0.01074
1575.90877,0.01832
1574.41898,0.03717
1572.92920,0.05792
1571.43941,0.06558
1569.94962,0.03670
1568.45983,0.00785
1566.97004,0.05681
1565.48025,0.01769
1563.99047,0.06296
1562.50068,0.03514
1561.01089,0.03922
1559.52110,0.03394
1558.03131,0.03620
1556.54152,0.07409
1555.05173,0.05015
1553.56195,0.07498
1552.07216,0.08108
1550.58237,0.06659
1549.09258,0.09525
1547.60279,0.21204
1546.11300,0.33635
1544.62322,0.28635
1543.13343,0.18950
1541.64364,0.12268
1540.15385,0.06525
1538.66406,0.00785
1537.17427,0.06374
1535.68448,0.06904
1534.19470,0.06125
1532.70491,0.03286
1531.21512,0.07573
1529.72533,0.04364
1528.23554,0.06032
1526.74575,0.06765
1525.25597,0.08063
1523.76618,0.10301
1522.27639,0.05231
1520.78660,0.07849
1519.29681,0.09345
1517.80702,0.06157
1516.31724,0.02222
1514.82745,0.07475
1513.33766,0.09169
1511.84787,0.10865
1510.35808,0.07690
1508.86829,0.05455
1507.37850,0.00785
1505.88872,0.04278
1504.39893,0.03274
1502.90914,0.06960
1501.41935,0.10085
1499.92956,0.05153
1498.43977,0.08471
1496.94999,0.01856
1495.46020,0.09117
1493.97041,0.10755
1492.48062,0.11835
1490.99083,0.13854
1489.50104,0.07252
1488.01125,0.09838
1486.52147,0.12428
1485.03168,0.19706
1483.54189,0.15927
1482.05210,0.18899
1480.56231,0.16624
1479.07252,0.22226
1477.58274,0.28580
1476.09295,0.25376
1474.60316,0.27611
1473.11337,0.31536
1471.62358,0.24028
1470.13379,0.24209
1468.64401,0.26454
1467.15422,0.22516
1465.66443,0.22423
1464.17464,0.22333
1462.68485,0.18215
1461.19506,0.17286
1459.70527,0.18985
1458.21549,0.13375
1456.72570,0.12454
1455.23591,0.13036
1453.74612,0.08933
1452.25633,0.07458
1450.76654,0.06735
1449.27676,0.13326
1447.78697,0.04922
1446.29718,0.11706
1444.80739,0.10993
1443.31760,0.10283
1441.82781,0.07139
1440.33802,0.09808
1438.84824,0.05544
1437.35845,0.11969
1435.86866,0.06960
1434.37887,0.10015
1432.88908,0.05199
1431.39929,0.09571
1429.90951,0.03636
1428.41972,0.11575
1426.92993,0.12581
1425.44014,0.10403
1423.95035,0.10476
1422.46056,0.10553
1420.97078,0.14006
1419.48099,0.23273
1417.99120,0.14546
1416.50141,0.17258
1415.01162,0.09286
1413.52183,0.13689
1412.03204,0.16221
1410.54226,0.18943
1409.05247,0.17167
1407.56268,0.19894
1406.07289,0.17562
1404.58310,0.17951
1403.09331,0.18342
1401.60353,0.18267
1400.11374,0.19882
1398.62395,0.22437
1397.13416,0.25557
1395.64437,0.23055
1394.15458,0.28055
1392.66479,0.24434
1391.17501,0.26439
1389.68522,0.23011
1388.19543,0.23147
1386.70564,0.23566
1385.21585,0.23989
1383.72606,0.27132
1382.23628,0.23716
1380.74649,0.18804
1379.25670,0.18955
1377.76691,0.24733
1376.27712,0.26202
1374.78733,0.36673
1373.29755,0.32148
1371.80776,0.41123
1370.31797,0.53663
1368.82818,0.56832
1367.33839,0.60004
1365.84860,0.75927
1364.35881,0.90539
1362.86903,0.89219
1361.37924,0.90714
1359.88945,0.92962
1358.39966,1.00273
1356.90987,0.83592
1355.42008,0.80035
1353.93030,0.90354
1352.44051,0.88584
1350.95072,0.86817
1349.46093,0.85145
1347.97114,0.68479
1346.48135,0.43567
1344.99156,0.35342
1343.50178,0.34993
1342.01199,0.28086
1340.52220,0.24931
1339.03241,0.26465
1337.54262,0.26689
1336.05283,0.22979
1334.56305,0.19271
1333.07326,0.19878
1331.58347,0.19363
1330.09368,0.19038
1328.60389,0.13091
1327.11410,0.14271
1325.62432,0.16953
1324.13453,0.07264
1322.64474,0.08639
1321.15495,0.08142
1319.66516,0.09054
1318.17537,0.09968
1316.68558,0.10228
1315.19580,0.09366
1313.70601,0.13382
1312.21622,0.09526
1310.72643,0.08672
1309.23664,0.08195
1307.74685,0.00785
1306.25707,0.12882
1304.76728,0.09610
1303.27749,0.06340
1301.78770,0.10009
1300.29791,0.09931
1298.80812,0.15667
1297.31834,0.05659
1295.82855,0.13463
1294.33876,0.08896
1292.84897,0.05457
1291.35918,0.05207
1289.86939,0.07959
1288.37960,0.10714
1286.88982,0.09910
1285.40003,0.07983
1283.91024,0.06997
1282.42045,0.05076
1280.93066,0.02969
1279.44087,0.08177
1277.95109,0.05701
1276.46130,0.03040
1274.97151,0.06100
1273.48172,0.09162
1271.99193,0.07634
1270.50214,0.03858
1269.01235,0.10771
1267.52257,0.07751
1266.03278,0.09795
1264.54299,0.11467
1263.05320,0.10517
1261.56341,0.09006
1260.07362,0.07499
1258.58384,0.11431
1257.09405,0.09741
1255.60426,0.16677
1254.11447,0.13868
1252.62468,0.05999
1251.13489,0.01696
1249.64511,0.08455
1248.15532,0.08280
1246.66553,0.08015
1245.17574,0.07752
1243.68595,0.06835
1242.19616,0.04984
1240.70637,0.05572
1239.21659,0.06351
1237.72680,0.03383
1236.23701,0.04729
1234.74722,0.04015
1233.25743,0.05647
1231.76764,0.07283
1230.27786,0.07327
1228.78807,0.10186
1227.29828,0.08360
1225.80849,0.07850
1224.31870,0.07154
1222.82891,0.08524
1221.33912,0.03334
1219.84934,0.07427
1218.35955,0.11523
1216.86976,0.03154
1215.37997,0.05474
1213.89018,0.07796
1212.40039,0.05622
1210.91061,0.09824
1209.42082,0.05405
1207.93103,0.06801
1206.44124,0.08199
1204.95145,0.06787
1203.46166,0.05378
1201.97188,0.00785
1200.48209,0.02054
1198.99230,0.04262
1197.50251,0.04786
1196.01272,0.04187
1194.52293,0.03123
1193.03314,0.02061
1191.54336,0.02220
1190.05357,0.01445
1188.56378,0.01984
1187.07399,0.04776
1185.58420,0.02509
1184.09441,0.07742
1182.60463,0.05574
1181.11484,0.03408
1179.62505,0.01713
1178.13526,0.05458
1176.64547,0.06018
1175.15568,0.07518
1173.66589,0.10896
1172.17611,0.08839
1170.68632,0.08941
1169.19653,0.09045
1167.70674,0.04184
1166.21695,0.04763
1164.72716,0.04594
1163.23738,0.04427
1161.74759,0.09700
1160.25780,0.03165
1158.76801,0.03850
1157.27822,0.04538
1155.78843,0.10383
1154.29865,0.02546
1152.80886,0.08960
1151.31907,0.05440
1149.82928,0.04172
1148.33949,0.10030
1146.84970,0.09986
1145.35991,0.09945
1143.87013,0.06625
1142.38034,0.10432
1140.89055,0.04868
1139.40076,0.04368
1137.91097,0.10995
1136.42118,0.13500
1134.93140,0.11227
1133.44161,0.08956
1131.95182,0.06782
1130.46203,0.12110
1128.97224,0.12753
1127.48245,0.11336
1125.99266,0.17047
1124.50288,0.13948
1123.01309,0.10946
1121.52330,0.07947
1120.03351,0.11792
1118.54372,0.17140
1117.05393,0.15930
1115.56415,0.23720
1114.07436,0.24952
1112.58457,0.23467
1111.09478,0.21986
1109.60499,0.28662
1108.11520,0.35153
1106.62542,0.36023
1105.13563,0.36520
1103.64584,0.42081
1102.15605,0.37709
1100.66626,0.41027
1099.17647,0.44346
1097.68668,0.43732
1096.19690,0.44432
1094.70711,0.51696
1093.21732,0.51464
1091.72753,0.65858
1090.23774,0.63756
1088.74795,0.61658
1087.25817,0.64810
1085.76838,0.54843
1084.27859,0.64563
1082.78880,0.65661
1081.29901,0.60201
1079.80922,0.64679
1078.31943,0.63630
1076.82965,0.62583
1075.33986,0.66881
1073.85007,0.67808
1072.36028,0.63488
1070.87049,0.53172
1069.38070,0.54856
1067.89092,0.51856
1066.40113,0.48859
1064.91134,0.52988
1063.42155,0.52996
1061.93176,0.47194
1060.44197,0.40458
1058.95219,0.47222
1057.46240,0.44428
1055.97261,0.41637
1054.48282,0.38660
1052.99303,0.34749
1051.50324,0.36277
1050.01345,0.25435
1048.52367,0.30342
1047.03388,0.28785
1045.54409,0.27230
1044.05430,0.25397
1042.56451,0.16255
1041.07472,0.11989
1039.58494,0.18037
1038.09515,0.15089
1036.60536,0.13081
1035.11557,0.11076
1033.62578,0.17322
1032.13599,0.13447
1030.64620,0.25135
1029.15642,0.18078
1027.66663,0.17679
1026.17684,0.17283
1024.68705,0.20732
1023.19726,0.23247
1021.70747,0.27264
1020.21769,0.28659
1018.72790,0.25745
1017.23811,0.29676
1015.74832,0.33609
1014.25853,0.31265
1012.76874,0.43547
1011.27896,0.50769
1009.78917,0.56494
1008.29938,0.59222
1006.80959,0.69076
1005.31980,0.78933
1003.83001,0.84669
1002.34022,1.00717
1000.85044,1.13957
999.36065,1.27199
997.87086,1.33038
996.38107,1.38880
994.89128,1.62628
993.40149,1.69319
991.91171,1.74138
990.42192,1.83458
988.93213,1.92219
987.44234,1.96108
985.95255,2.00000
984.46276,1.90959
982.97297,1.89607
981.48319,1.80196
979.99340,1.70788
978.50361,1.71787
977.01382,1.72789
975.52403,1.72949
974.03424,1.85486
972.54446,1.69904
971.05467,1.61261
969.56488,1.58433
968.07509,1.54201
966.58530,1.49971
965.09551,1.42839
963.60573,1.25023
962.11594,1.42454
960.62615,1.25581
959.13636,1.19678
957.64657,1.13777
956.15678,1.10971
954.66699,1.02545
953.17721,0.97870
951.68742,0.98072
950.19763,0.95746
948.70784,0.93423
947.21805,0.97382
945.72826,0.86909
944.23848,0.79438
942.74869,0.88841
941.25890,0.91686
939.76911,0.83942
938.27932,0.76200
936.78953,0.80927
935.29974,0.76658
933.80996,0.74454
932.32017,0.82751
930.83038,0.81396
929.34059,0.80044
927.85080,0.87974
926.36101,0.81659
924.87123,0.83595
923.38144,0.92657
921.89165,0.92161
920.40186,0.91668
918.91207,0.96426
917.42228,0.95938
915.93250,0.94703
914.44271,1.10155
912.95292,1.10706
911.46313,1.11259
909.97334,1.18658
908.48355,1.14811
906.99376,1.25026
905.50398,1.28121
904.01419,1.30656
902.52440,1.33193
901.03461,1.45481
899.54482,1.51586
898.05503,1.50944
896.56525,1.55367
895.07546,1.55011
893.58567,1.54658
892.09588,1.37530
890.60609,1.33901
889.11630,1.25026
887.62651,1.21216
886.13673,1.22095
884.64694,1.22976
883.15715,1.22922
881.66736,1.23246
880.17757,1.02389
878.68778,1.02437
877.19800,1.02488
875.70821,0.99823
874.21842,0.97348
872.72863,0.78003
871.23884,0.71971
869.74905,0.66692
868.25927,0.61416
866.76948,0.68514
865.27969,0.54432
863.78990,0.58537
862.30011,0.52708
860.81032,0.52975
859.32053,0.53244
857.83075,0.45548
856.34096,0.44229
854.85117,0.43475
853.36138,0.36350
851.87159,0.32976
850.38180,0.29606
848.89202,0.28675
847.40223,0.28121
845.91244,0.18196
844.42265,0.17273
842.93286,0.16352
841.44307,0.13372
839.95329,0.15268
838.46350,0.10044
836.97371,0.09508
835.48392,0.12819
833.99413,0.16131
832.50434,0.14104
831.01455,0.10767
829.52477,0.09682
828.03498,0.09537
826.54519,0.09114
825.05540,0.08693
823.56561,0.09680
822.07582,0.10296
820.58604,0.08477
819.09625,0.06379
817.60646,0.04284
816.11667,0.00785
814.62688,0.10204
813.13709,0.08565
811.64730,0.01680
810.15752,0.03139
808.66773,0.04601
807.17794,0.02597
805.68815,0.01721
804.19836,0.06659
802.70857,0.07382
801.21879,0.08107
799.72900,0.16427
798.23921,0.09377
796.74942,0.07392
795.25963,0.12720
793.76984,0.18051
792.28006,0.21323
790.79027,0.28908
789.30048,0.32935
787.81069,0.26091
786.32090,0.27498
784.83111,0.28908
783.34132,0.30695
781.85154,0.31923
780.36175,0.38964
778.87196,0.33261
777.38217,0.27560
775.89238,0.37609
774.40259,0.38849
772.91281,0.37093
771.42302,0.37776
769.93323,0.38462
768.44344,0.41400
766.95365,0.34405
765.46386,0.40910
763.97407,0.35982
762.48429,0.32556
760.99450,0.29133
759.50471,0.26088
758.01492,0.20608
756.52513,0.21880
755.03534,0.19780
753.54556,0.17682
752.05577,0.14650
750.56598,0.14057
749.07619,0.14591
747.58640,0.10817
746.09661,0.07045
744.60683,0.11337
743.11704,0.04383
741.62725,0.10180
740.13746,0.05481
738.64767,0.00785
737.15788,0.16156
735.66809,0.10345
734.17831,0.05849
732.68852,0.09230
731.19873,0.12613
729.70894,0.11125
728.21915,0.06639
726.72936,0.01219
725.23958,0.09487
723.74979,0.09227
722.26000,0.08970
720.77021,0.07310
719.28042,0.08277
717.79063,0.07559
716.30084,0.06000
714.81106,0.04444
713.32127,0.04671
711.83148,0.06401
710.34169,0.02884
708.85190,0.03494
707.36211,0.04107
705.87233,0.00785
704.38254,0.13150
702.89275,0.01335
701.40296,0.03675
699.91317,0.06019
698.42338,0.08459
696.93360,0.27960
695.44381,0.26469
693.95402,0.25823
692.46423,0.25180
690.97444,0.16572
689.48465,0.07779
687.99486,0.08737
686.50508,0.08104
685.01529,0.07474
683.52550,0.09002
682.03571,0.00785
680.54592,0.05804
679.05613,0.05108
677.56635,0.04414
676.07656,0.08878
674.58677,0.07158
673.09698,0.03754
671.60719,0.06070
670.11740,0.08389
668.62761,0.08367
667.13783,0.06285
665.64804,0.05800
664.15825,0.05317
662.66846,0.06055
661.17867,0.02671
659.68888,0.07352
658.19910,0.06692
656.70931,0.06034
655.21952,0.06035
653.72973,0.05289
652.23994,0.08295
650.75015,0.10835
649.26037,0.13378
647.77058,0.12830
646.28079,0.17533
644.79100,0.14178
643.30121,0.15044
641.81142,0.15912
640.32163,0.12003
638.83185,0.09595
637.34206,0.10753
635.85227,0.10600
634.36248,0.10450
632.87269,0.15552
631.38290,0.00785
629.89312,0.06559
628.40333,0.06430
626.91354,0.06304
625.42375,0.04399
623.93396,0.02310
622.44417,0.04816
620.95438,0.07325
619.46460,0.11242
617.97481,0.02414
616.48502,0.12711
614.99523,0.09418
613.50544,0.06129
612.01565,0.07622
610.52587,0.10805
609.03608,0.07804
607.54629,0.12492
606.05650,0.17183
604.56671,0.10253
603.07692,0.12886
601.58714,0.10555
600.09735,0.08226
598.60756,0.02618
597.11777,0.00950
595.62798,0.00785
594.13819,0.02735
592.64840,0.04687
591.15862,0.06549
589.66883,0.11787
588.17904,0.19278
586.68925,0.15523
585.19946,0.11770
583.70967,0.18331
582.21989,0.19833
580.73010,0.22275
579.24031,0.24720
577.75052,0.23980
576.26073,0.20993
574.77094,0.32256
573.28115,0.32555
571.79137,0.32857
570.30158,0.30068
568.81179,0.46028
567.32200,0.47275
565.83221,0.48524
564.34242,0.59430
562.85264,0.54592
561.36285,0.61942
559.87306,0.66951
558.38327,0.71963
556.89348,0.65822
555.40369,0.78057
553.91391,0.79421
552.42412,0.80787
550.93433,0.76532
549.44454,0.79591
547.95475,0.86589
546.46496,0.84966
544.97517,0.83346
543.48539,0.93539
541.99560,0.94924
540.50581,0.96123
539.01602,0.97325
537.52623,0.97218
536.03644,1.03487
534.54666,1.02635
533.05687,1.01036
531.56708,0.99439
530.07729,0.94658
528.58750,0.82380
527.09771,0.82572
525.60792,0.82767
524.11814,0.82308
522.62835,0.76227
521.13856,0.70524
519.64877,0.68011
518.15898,0.65500
516.66919,0.57743
515.17941,0.58237
513.68962,0.59483
512.19983,0.60732
510.71004,0.47549
509.22025,0.45991
507.73046,0.38249
506.24068,0.40633
504.75089,0.43020
503.26110,0.44285
501.77131,0.29054
500.28152,0.27887
498.79173,0.26722
497.30194,0.25935
495.81216,0.26838
494.32237,0.23337
492.83258,0.19839
491.34279,0.25062
489.85300,0.18288
488.36321,0.19579
486.87343,0.19185
485.38364,0.18793
483.89385,0.16717
482.40406,0.24579
480.91427,0.23258
479.42448,0.21940
477.93469,0.14625
476.44491,0.11624
474.95512,0.15656
473.46533,0.19691
471.97554,0.11449
470.48575,0.15020
468.99596,0.14470
467.50618,0.15047
466.01639,0.15626
464.52660,0.10585
463.03681,0.10982
461.54702,0.16068
460.05723,0.21158
458.56745,0.18001
457.07766,0.18971
455.58787,0.16288
454.09808,0.13607
452.60829,0.17022
451.11850,0.23252
449.62871,0.25641
448.13893,0.28032
446.64914,0.34270
445.15935,0.37510
443.66956,0.36067
442.17977,0.43061
440.68998,0.50059
439.20020,0.52935
437.71041,0.55626
436.22062,0.59726
434.73083,0.63828
433.24104,0.63902
431.75125,0.70728
430.26146,0.76619
428.77168,0.82512
427.28189,0.86721
425.79210,0.91307
424.30231,1.03208
422.81252,1.15111
421.32273,1.50450
419.83295,1.55609
418.34316,1.49898
416.85337,1.44189
415.36358,0.90678
413.87379,0.79351
412.38400,0.83398
410.89422,0.87448
409.40443,1.00124
407.91464,1.11865
406.42485,1.07675
404.93506,1.03299
403.44527,0.98926
401.95548,0.87806
400.46570,0.85688
398.97591,0.88634
397.48612,0.91582
395.99633,0.87972
394.50654,0.92051
393.01675,0.90227
391.52697,0.88405
390.03718,0.84430
388.54739,0.85519
387.05760,0.82487
385.56781,0.79457
384.07802,0.77368
382.58824,0.71344
381.09845,0.67666
379.60866,0.63990
378.11887,0.57974
376.62908,0.64333
375.13929,0.59728
373.64950,0.55126
372.15972,0.50807
370.66993,0.41804
369.18014,0.38334
367.69035,0.34867
366.20056,0.35058
364.71077,0.35252
363.22099,0.32542
361.73120,0.29835
360.24141,0.15976
358.75162,0.17493
357.26183,0.18262
355.77204,0.19033
354.28225,0.17933
352.79247,0.14960
351.30268,0.16114
349.81289,0.17271
348.32310,0.18243
346.83331,0.09844
345.34352,0.07541
343.85374,0.05240
342.36395,0.03410
340.87416,0.07769
339.38437,0.10069
337.89458,0.12372
336.40479,0.14489
334.91501,0.01237
333.42522,0.05896
331.93543,0.10557
330.44564,0.00785
328.95585,0.07193
327.46606,0.06668
325.97627,0.06145
324.48649,0.09187
322.99670,0.09044
321.50691,0.05248
320.01712,0.01455
318.52733,0.07108
317.03754,0.01703
315.54776,0.03518
314.05797,0.05336
312.56818,0.08937
311.07839,0.03543
309.58860,0.02838
308.09881,0.02135
306.60902,0.10621
305.11924,0.09548
303.62945,0.11009
302.13966,0.12473
300.64987,0.08221
299.16008,0.00785
