1778.52000,0.09146
1777.03021,0.10051
1775.54042,0.04816
1774.05063,0.00609
1772.56085,0.15654
1771.07106,0.09815
1769.58127,0.16880
1768.09148,0.12275
1766.60169,0.13408
1765.11190,0.09220
1763.62212,0.04626
1762.13233,0.04130
1760.64254,0.08348
1759.15275,0.12978
1757.66296,0.16793
1756.17317,0.04637
1754.68339,0.06206
1753.19360,0.09620
1751.70381,0.10990
1750.21402,0.12773
1748.72423,0.04730
1747.23444,0.04881
1745.74465,0.05855
1744.25487,0.07241
1742.76508,0.04535
1741.27529,0.07566
1739.78550,0.05276
1738.29571,0.09747
1736.80592,0.06030
1735.31614,0.12555
1733.82635,0.08845
1732.33656,0.04114
1730.84677,0.00000
1729.35698,0.02551
1727.86719,0.12477
1726.37740,0.13601
1724.88762,0.12475
1723.39783,0.04800
1721.90804,0.00609
1720.41825,0.06235
1718.92846,0.03264
1717.43867,0.09512
1715.94889,0.15148
1714.45910,0.09934
1712.96931,0.11277
1711.47952,0.06479
1709.98973,0.08647
1708.49994,0.17371
1707.01016,0.16679
1705.52037,0.15989
1704.03058,0.17965
1702.54079,0.21583
1701.05100,0.15989
1699.56121,0.19613
1698.07142,0.15868
1696.58164,0.08441
1695.09185,0.20266
1693.60206,0.15507
1692.11227,0.20376
1690.62248,0.20538
1689.13269,0.21523
1687.64291,0.11248
1686.15312,0.14287
1684.66333,0.11391
1683.17354,0.11569
1681.68375,0.16871
1680.19396,0.14598
1678.70417,0.20520
1677.21439,0.23579
1675.72460,0.22545
1674.23481,0.15780
1672.74502,0.15777
1671.25523,0.15777
1669.76544,0.09226
1668.27566,0.13328
1666.78587,0.11290
1665.29608,0.09869
1663.80629,0.09680
1662.31650,0.13181
1660.82671,0.18732
1659.33693,0.19987
1657.84714,0.15920
1656.35735,0.07146
1654.86756,0.04929
1653.37777,0.08449
1651.88798,0.18730
1650.39819,0.17956
1648.90841,0.18005
1647.41862,0.11299
1645.92883,0.11353
1644.43904,0.11412
1642.94925,0.11063
1641.45946,0.12357
1639.96968,0.10786
1638.47989,0.16796
1636.99010,0.12160
1635.50031,0.09371
1634.01052,0.13343
1632.52073,0.11174
1631.03094,0.18839
1629.54116,0.21591
1628.05137,0.24347
1626.56158,0.21987
1625.07179,0.18196
1623.58200,0.18505
1622.09221,0.07963
1620.60243,0.05001
1619.11264,0.00609
1617.62285,0.08456
1616.13306,0.09138
1614.64327,0.14739
1613.15348,0.18500
1611.66370,0.22469
1610.17391,0.13335
1608.68412,0.11576
1607.19433,0.16989
1605.70454,0.14827
1604.21475,0.13590
1602.72496,0.12357
1601.23518,0.08157
1599.74539,0.07851
1598.25560,0.08778
1596.76581,0.12779
1595.27602,0.11050
1593.78623,0.06866
1592.29645,0.13130
1590.80666,0.06291
1589.31687,0.02527
1587.82708,0.00609
1586.33729,0.11863
1584.84750,0.13904
1583.35771,0.15744
1581.86793,0.12468
1580.37814,0.12267
1578.88835,0.11045
1577.39856,0.07574
1575.90877,0.04515
1574.41898,0.05146
1572.92920,0.10490
1571.43941,0.13995
1569.94962,0.11564
1568.45983,0.09136
1566.97004,0.05073
1565.48025,0.04699
1563.99047,0.05558
1562.50068,0.06419
1561.01089,0.08103
1559.52110,0.07948
1558.03131,0.05133
1556.54152,0.06827
1555.05173,0.07704
1553.56195,0.12272
1552.07216,0.04145
1550.58237,0.05852
1549.09258,0.12477
1547.60279,0.27092
1546.11300,0.47239
1544.62322,0.41791
1543.13343,0.24264
1541.64364,0.19437
1540.15385,0.14102
1538.66406,0.08769
1537.17427,0.11324
1535.68448,0.10197
1534.19470,0.11325
1532.70491,0.03650
1531.21512,0.01508
1529.72533,0.04899
1528.23554,0.01944
1526.74575,0.04727
1525.25597,0.05874
1523.76618,0.02929
1522.27639,0.08998
1520.78660,0.05036
1519.29681,0.11111
1517.80702,0.09817
1516.31724,0.09551
1514.82745,0.03349
1513.33766,0.07185
1511.84787,0.11023
1510.35808,0.06879
1508.86829,0.03147
1507.37850,0.00852
1505.88872,0.00609
1504.39893,0.05372
1502.90914,0.07681
1501.41935,0.03440
1499.92956,0.06780
1498.43977,0.05413
1496.94999,0.04253
1495.46020,0.04326
1493.97041,0.07474
1492.48062,0.08577
1490.99083,0.09274
1489.50104,0.05059
1488.01125,0.08936
1486.52147,0.12817
1485.03168,0.08817
1483.54189,0.20178
1482.05210,0.11884
1480.56231,0.17109
1479.07252,0.12712
1477.58274,0.29821
1476.09295,0.20311
1474.60316,0.31692
1473.11337,0.25465
1471.62358,0.20060
1470.13379,0.19574
1468.64401,0.18886
1467.15422,0.20863
1465.66443,0.21103
1464.17464,0.21346
1462.68485,0.12685
1461.19506,0.17747
1459.70527,0.10935
1458.21549,0.13136
1456.72570,0.06330
1455.23591,0.08129
1453.74612,0.11774
1452.25633,0.11531
1450.76654,0.09244
1449.27676,0.09417
1447.78697,0.06522
1446.29718,0.07316
1444.80739,0.05451
1443.31760,0.03589
1441.82781,0.07670
1440.33802,0.11139
1438.84824,0.06420
1437.35845,0.04776
1435.86866,0.06207
1434.37887,0.07232
1432.88908,0.02117
1431.39929,0.05196
1429.90951,0.03364
1428.41972,0.13002
1426.92993,0.09333
1425.44014,0.08330
1423.95035,0.10299
1422.46056,0.12271
1420.97078,0.12301
1419.48099,0.14792
1417.99120,0.21791
1416.50141,0.13435
1415.01162,0.12864
1413.52183,0.12296
1412.03204,0.11321
1410.54226,0.19770
1409.05247,0.14912
1407.56268,0.15585
1406.07289,0.21587
1404.58310,0.23291
1403.09331,0.24998
1401.60353,0.20360
1400.11374,0.20231
1398.62395,0.25634
1397.13416,0.19163
1395.64437,0.25801
1394.15458,0.22204
1392.66479,0.18200
1391.17501,0.25053
1389.68522,0.24741
1388.19543,0.23819
1386.70564,0.24845
1385.21585,0.25875
1383.72606,0.28648
1382.23628,0.21185
1380.74649,0.21508
1379.25670,0.22448
1377.76691,0.25030
1376.27712,0.29458
1374.78733,0.31431
1373.29755,0.43238
1371.80776,0.50133
1370.31797,0.70138
1368.82818,0.73968
1367.33839,0.77801
1365.84860,1.02115
1364.35881,1.09846
1362.86903,1.19013
1361.37924,1.31870
1359.88945,1.29371
1358.39966,1.19912
1356.90987,1.09842
1355.42008,1.07148
1353.93030,1.32718
1352.44051,1.27573
1350.95072,1.22431
1349.46093,1.07872
1347.97114,0.72224
1346.48135,0.54599
1344.99156,0.36774
1343.50178,0.37997
1342.01199,0.33489
1340.52220,0.27755
1339.03241,0.29807
1337.54262,0.11383
1336.05283,0.15898
1334.56305,0.20417
1333.07326,0.18796
1331.58347,0.12877
1330.09368,0.15562
1328.60389,0.11493
1327.11410,0.10499
1325.62432,0.12170
1324.13453,0.07701
1322.64474,0.06307
1321.15495,0.00820
1319.66516,0.03631
1318.17537,0.06445
1316.68558,0.02811
1315.19580,0.12696
1313.70601,0.05383
1312.21622,0.07083
1310.72643,0.02029
1309.23664,0.05169
1307.74685,0.10361
1306.25707,0.05931
1304.76728,0.03449
1303.27749,0.00971
1301.78770,0.02285
1300.29791,0.05649
1298.80812,0.10041
1297.31834,0.04402
1295.82855,0.00609
1294.33876,0.12749
1292.84897,0.05028
1291.35918,0.07959
1289.86939,0.08846
1288.37960,0.09736
1286.88982,0.10424
1285.40003,0.12140
1283.91024,0.09149
1282.42045,0.06570
1280.93066,0.08910
1279.44087,0.10024
1277.95109,0.13599
1276.46130,0.12672
1274.97151,0.12772
1273.48172,0.12875
1271.99193,0.08476
1270.50214,0.12067
1269.01235,0.09313
1267.52257,0.04105
1266.03278,0.07091
1264.54299,0.15405
1263.05320,0.08773
1261.56341,0.08902
1260.07362,0.09035
1258.58384,0.09990
1257.09405,0.16067
1255.60426,0.16209
1254.11447,0.06935
1252.62468,0.14251
1251.13489,0.02525
1249.64511,0.03704
1248.15532,0.07958
1246.66553,0.08427
1245.17574,0.08899
1243.68595,0.09477
1242.19616,0.06781
1240.70637,0.11461
1239.21659,0.10615
1237.72680,0.09772
1236.23701,0.01765
1234.74722,0.09325
1233.25743,0.09106
1231.76764,0.08890
1230.27786,0.09907
1228.78807,0.14818
1227.29828,0.10721
1225.80849,0.03146
1224.31870,0.09295
1222.82891,0.13604
1221.33912,0.08087
1219.84934,0.10457
1218.35955,0.12831
1216.86976,0.12033
1215.37997,0.06939
1213.89018,0.08400
1212.40039,0.09660
1210.91061,0.10105
1209.42082,0.16082
1207.93103,0.14791
1206.44124,0.13505
1204.95145,0.13962
1203.46166,0.08279
1201.97188,0.01166
1200.48209,0.00609
1198.99230,0.04262
1197.50251,0.12219
1196.01272,0.09121
1194.52293,0.07870
1193.03314,0.06621
1191.54336,0.06810
1190.05357,0.12735
1188.56378,0.11906
1187.07399,0.04527
1185.58420,0.11282
1184.09441,0.06776
1182.60463,0.11387
1181.11484,0.16001
1179.62505,0.09662
1178.13526,0.13156
1176.64547,0.12148
1175.15568,0.14420
1173.66589,0.13418
1172.17611,0.19792
1170.68632,0.17159
1169.19653,0.14529
1167.70674,0.10674
1166.21695,0.03135
1164.72716,0.17103
1163.23738,0.11619
1161.74759,0.09210
1160.25780,0.08033
1158.76801,0.09623
1157.27822,0.11217
1155.78843,0.14760
1154.29865,0.09705
1152.80886,0.10797
1151.31907,0.10459
1149.82928,0.07666
1148.33949,0.13887
1146.84970,0.15094
1145.35991,0.16305
1143.87013,0.20078
1142.38034,0.15664
1140.89055,0.18624
1139.40076,0.17288
1137.91097,0.16364
1136.42118,0.12372
1134.93140,0.14425
1133.44161,0.16480
1131.95182,0.11883
1130.46203,0.19577
1128.97224,0.19901
1127.48245,0.16338
1125.99266,0.18922
1124.50288,0.17618
1123.01309,0.19799
1121.52330,0.21983
1120.03351,0.21507
1118.54372,0.27794
1117.05393,0.30806
1115.56415,0.23378
1114.07436,0.36022
1112.58457,0.34130
1111.09478,0.32241
1109.60499,0.38547
1108.11520,0.32363
1106.62542,0.41952
1105.13563,0.44786
1103.64584,0.46804
1102.15605,0.45344
1100.66626,0.46959
1099.17647,0.48577
1097.68668,0.54499
1096.19690,0.56328
1094.70711,0.58980
1093.21732,0.64093
1091.72753,0.63270
1090.23774,0.68184
1088.74795,0.73101
1087.25817,0.69831
1085.76838,0.71273
1084.27859,0.68009
1082.78880,0.76421
1081.29901,0.62719
1079.80922,0.75847
1078.31943,0.70036
1076.82965,0.64228
1075.33986,0.66922
1073.85007,0.74330
1072.36028,0.65357
1070.87049,0.61918
1069.38070,0.58071
1067.89092,0.55560
1066.40113,0.53051
1064.91134,0.45324
1063.42155,0.53163
1061.93176,0.52200
1060.44197,0.51650
1058.95219,0.37383
1057.46240,0.35303
1055.97261,0.33227
1054.48282,0.38014
1052.99303,0.35637
1051.50324,0.36540
1050.01345,0.35194
1048.52367,0.37741
1047.03388,0.32510
1045.54409,0.27282
1044.05430,0.30045
1042.56451,0.18680
1041.07472,0.09776
1039.58494,0.04766
1038.09515,0.11022
1036.60536,0.05814
1035.11557,0.00609
1033.62578,0.12246
1032.13599,0.10371
1030.64620,0.23243
1029.15642,0.20965
1027.66663,0.20533
1026.17684,0.20104
1024.68705,0.28894
1023.19726,0.20281
1021.70747,0.31534
1020.21769,0.32757
1018.72790,0.35211
1017.23811,0.33471
1015.74832,0.31734
1014.25853,0.45461
1012.76874,0.49157
1011.27896,0.52857
1009.78917,0.64955
1008.29938,0.61699
1006.80959,0.68480
1005.31980,0.75264
1003.83001,0.73245
1002.34022,0.86384
1000.85044,1.06080
999.36065,1.31717
997.87086,1.35650
996.38107,1.39587
994.89128,1.59910
993.40149,1.54433
991.91171,1.71895
990.42192,1.78917
988.93213,1.94952
987.44234,1.97474
985.95255,2.00000
984.46276,1.79798
982.97297,1.86631
981.48319,1.77289
979.99340,1.66721
978.50361,1.70799
977.01382,1.74880
975.52403,1.58179
974.03424,1.67284
972.54446,1.60419
971.05467,1.62158
969.56488,1.57552
968.07509,1.48444
966.58530,1.39339
965.09551,1.37815
963.60573,1.34041
962.11594,1.30680
960.62615,1.28551
959.13636,1.28677
957.64657,1.28808
956.15678,1.09691
954.66699,1.13104
953.17721,1.01776
951.68742,0.97004
950.19763,0.89880
948.70784,0.82760
947.21805,0.91514
945.72826,0.86140
944.23848,0.87733
942.74869,0.82981
941.25890,0.75774
939.76911,0.77172
938.27932,0.78573
936.78953,0.75472
935.29974,0.70736
933.80996,0.86481
932.32017,0.67621
930.83038,0.71086
929.34059,0.74555
927.85080,0.86218
926.36101,0.83958
924.87123,0.84365
923.38144,0.82521
921.89165,0.83958
920.40186,0.85398
918.91207,0.86022
917.42228,0.85625
915.93250,0.97519
914.44271,1.08596
912.95292,1.02783
911.46313,0.96972
909.97334,1.00278
908.48355,1.03382
906.99376,1.12837
905.50398,1.09600
904.01419,1.16297
902.52440,1.22998
901.03461,1.15674
899.54482,1.29242
898.05503,1.22334
896.56525,1.34475
895.07546,1.30236
893.58567,1.26000
892.09588,1.29345
890.60609,1.24296
889.11630,1.16999
887.62651,1.09090
886.13673,1.05792
884.64694,1.02497
883.15715,1.10161
881.66736,1.11890
880.17757,0.99288
878.68778,1.00102
877.19800,1.00919
875.70821,0.91807
874.21842,0.91914
872.72863,0.82604
871.23884,0.76369
869.74905,0.69216
868.25927,0.62066
866.76948,0.62803
865.27969,0.53919
863.78990,0.57735
862.30011,0.48243
860.81032,0.49096
859.32053,0.49952
857.83075,0.45384
856.34096,0.41434
854.85117,0.37078
853.36138,0.32111
851.87159,0.32881
850.38180,0.33654
848.89202,0.31359
847.40223,0.29271
845.91244,0.26573
844.42265,0.24902
842.93286,0.23234
841.44307,0.18497
839.95329,0.17655
838.46350,0.09034
836.97371,0.15775
835.48392,0.12895
833.99413,0.10017
832.50434,0.10829
831.01455,0.15740
829.52477,0.16354
828.03498,0.12671
826.54519,0.10526
825.05540,0.08385
823.56561,0.04507
822.07582,0.07799
820.58604,0.13552
819.09625,0.07943
817.60646,0.02336
816.11667,0.01955
814.62688,0.11408
813.13709,0.12467
811.64730,0.14348
810.15752,0.09373
808.66773,0.04400
807.17794,0.01581
805.68815,0.00609
804.19836,0.07851
802.70857,0.11103
801.21879,0.14359
799.72900,0.14443
798.23921,0.21084
796.74942,0.22608
795.25963,0.24443
793.76984,0.26281
792.28006,0.23925
790.79027,0.34677
789.30048,0.29665
787.81069,0.27932
786.32090,0.27739
784.83111,0.27549
783.34132,0.35655
781.85154,0.34140
780.36175,0.34472
778.87196,0.31837
777.38217,0.29206
775.89238,0.38353
774.40259,0.34397
772.91281,0.39045
771.42302,0.39601
769.93323,0.40159
768.44344,0.44203
766.95365,0.31662
765.46386,0.42265
763.97407,0.39151
762.48429,0.37474
760.99450,0.35799
759.50471,0.27575
758.01492,0.26931
756.52513,0.21376
755.03534,0.16540
753.54556,0.11708
752.05577,0.15173
750.56598,0.11064
749.07619,0.10235
747.58640,0.09921
746.09661,0.09610
744.60683,0.07357
743.11704,0.08180
741.62725,0.00609
740.13746,0.03420
738.64767,0.06235
737.15788,0.09462
735.66809,0.16379
734.17831,0.15313
732.68852,0.17731
731.19873,0.20152
729.70894,0.14385
728.21915,0.01454
726.72936,0.00609
725.23958,0.05845
723.74979,0.08115
722.26000,0.10388
720.77021,0.04166
719.28042,0.13511
717.79063,0.13439
716.30084,0.07738
714.81106,0.02041
713.32127,0.01774
711.83148,0.05811
710.34169,0.12717
708.85190,0.13484
707.36211,0.14254
705.87233,0.07450
704.38254,0.06997
702.89275,0.04295
701.40296,0.05488
699.91317,0.06683
698.42338,0.18326
696.93360,0.50656
695.44381,0.61076
693.95402,0.51022
692.46423,0.40970
690.97444,0.20683
689.48465,0.08590
687.99486,0.04282
686.50508,0.10422
685.01529,0.16565
683.52550,0.09809
682.03571,0.07358
680.54592,0.00609
679.05613,0.02918
677.56635,0.05230
676.07656,0.12665
674.58677,0.10684
673.09698,0.14644
671.60719,0.14000
670.11740,0.13359
668.62761,0.10367
667.13783,0.05329
665.64804,0.09920
664.15825,0.14514
662.66846,0.13173
661.17867,0.04053
659.68888,0.05381
658.19910,0.05073
656.70931,0.04768
655.21952,0.11635
653.72973,0.15637
652.23994,0.20053
650.75015,0.19761
649.26037,0.19473
647.77058,0.21645
646.28079,0.34470
644.79100,0.36239
643.30121,0.37705
641.81142,0.39173
640.32163,0.25389
638.83185,0.09560
637.34206,0.04792
635.85227,0.07298
634.36248,0.09806
632.87269,0.14264
631.38290,0.14015
629.89312,0.18479
628.40333,0.17007
626.91354,0.15539
625.42375,0.20013
623.93396,0.24899
622.44417,0.25386
620.95438,0.25876
619.46460,0.22991
617.97481,0.15194
616.48502,0.23783
614.99523,0.18859
613.50544,0.13938
612.01565,0.24175
610.52587,0.22333
609.03608,0.22337
607.54629,0.21321
606.05650,0.20308
604.56671,0.28922
603.07692,0.19929
601.58714,0.16263
600.09735,0.12601
598.60756,0.08941
597.11777,0.04466
595.62798,0.00609
594.13819,0.00951
592.64840,0.01296
591.15862,0.04204
589.66883,0.05272
588.17904,0.11873
586.68925,0.16634
585.19946,0.21399
583.70967,0.29033
582.21989,0.32166
580.73010,0.31001
579.24031,0.29840
577.75052,0.34006
576.26073,0.40428
574.77094,0.44600
573.28115,0.43759
571.79137,0.42921
570.30158,0.45875
568.81179,0.45760
567.32200,0.49232
565.83221,0.52707
564.34242,0.53421
562.85264,0.64173
561.36285,0.72471
559.87306,0.74628
558.38327,0.76788
556.89348,0.82843
555.40369,0.87263
553.91391,0.87999
552.42412,0.88739
550.93433,0.77605
549.44454,0.73232
547.95475,0.78282
546.46496,0.83028
544.97517,0.87778
543.48539,0.90790
541.99560,0.89914
540.50581,0.92216
539.01602,0.94521
537.52623,1.06557
536.03644,1.04056
534.54666,1.01353
533.05687,0.96709
531.56708,0.92067
530.07729,0.91422
528.58750,0.90781
527.09771,0.81746
525.60792,0.72715
524.11814,0.73926
522.62835,0.66949
521.13856,0.59565
519.64877,0.55359
518.15898,0.51157
516.66919,0.48698
515.17941,0.53205
513.68962,0.57408
512.19983,0.61615
510.71004,0.56098
509.22025,0.47307
507.73046,0.36881
506.24068,0.29120
504.75089,0.21363
503.26110,0.17295
501.77131,0.18350
500.28152,0.15620
498.79173,0.12893
497.30194,0.11500
495.81216,0.11340
494.32237,0.13025
492.83258,0.14714
491.34279,0.10672
489.85300,0.16873
488.36321,0.20210
486.87343,0.21092
485.38364,0.21978
483.89385,0.10580
482.40406,0.13316
480.91427,0.09194
479.42448,0.05076
477.93469,0.10074
476.44491,0.01764
474.95512,0.04925
473.46533,0.08090
471.97554,0.00609
470.48575,0.09437
468.99596,0.15605
467.50618,0.14098
466.01639,0.12594
464.52660,0.05666
463.03681,0.07752
461.54702,0.09739
460.05723,0.11730
458.56745,0.16283
457.07766,0.23911
455.58787,0.19256
454.09808,0.14603
452.60829,0.12821
451.11850,0.13909
449.62871,0.15206
448.13893,0.16505
446.64914,0.21494
445.15935,0.33653
443.66956,0.38444
442.17977,0.45285
440.68998,0.52130
439.20020,0.45463
437.71041,0.43918
436.22062,0.48827
434.73083,0.53739
433.24104,0.59372
431.75125,0.66236
430.26146,0.71056
428.77168,0.75879
427.28189,0.76404
425.79210,0.87582
424.30231,1.10129
422.81252,1.32679
421.32273,1.81752
419.83295,1.86594
418.34316,1.78436
416.85337,1.70281
415.36358,0.97929
413.87379,0.84968
412.38400,0.83376
410.89422,0.81787
409.40443,1.04673
407.91464,1.09132
406.42485,1.17280
404.93506,1.13349
403.44527,1.09422
401.95548,0.88295
400.46570,0.81507
398.97591,0.76975
397.48612,0.72446
395.99633,0.76930
394.50654,0.73841
393.01675,0.77001
391.52697,0.80165
390.03718,0.77495
388.54739,0.77900
387.05760,0.77797
385.56781,0.77697
384.07802,0.61524
382.58824,0.64809
381.09845,0.64412
379.60866,0.64017
378.11887,0.46424
376.62908,0.53613
375.13929,0.49235
373.64950,0.44860
372.15972,0.41410
370.66993,0.40831
369.18014,0.31756
367.69035,0.22684
366.20056,0.34810
364.71077,0.42230
363.22099,0.39414
361.73120,0.36601
360.24141,0.28262
358.75162,0.17264
357.26183,0.16304
355.77204,0.15348
354.28225,0.17875
352.79247,0.18358
351.30268,0.18333
349.81289,0.18310
348.32310,0.19622
346.83331,0.16432
345.34352,0.14474
343.85374,0.12519
342.36395,0.24698
340.87416,0.19064
339.38437,0.20805
337.89458,0.22549
336.40479,0.15695
334.91501,0.17037
333.42522,0.12749
331.93543,0.08466
330.44564,0.07769
328.95585,0.07894
327.46606,0.06896
325.97627,0.05902
324.48649,0.19758
322.99670,0.13957
321.50691,0.17581
320.01712,0.21207
318.52733,0.09887
317.03754,0.03280
315.54776,0.01943
314.05797,0.00609
312.56818,0.17444
311.07839,0.09709
309.58860,0.11807
308.09881,0.13908
306.60902,0.09050
305.11924,0.08700
303.62945,0.08967
302.13966,0.09238
300.64987,0.00911
299.16008,0.00609
