1778.52000,0.05418
1777.03021,0.03907
1775.54042,0.01114
1774.05063,0.04348
1772.56085,0.00837
1771.07106,0.02068
1769.58127,0.07721
1768.09148,0.02932
1766.60169,0.04413
1765.11190,0.03325
1763.62212,0.03767
1762.13233,0.02685
1760.64254,0.05221
1759.15275,0.05510
1757.66296,0.04436
1756.17317,0.04329
1754.68339,0.03823
1753.19360,0.02838
1751.70381,0.01694
1750.21402,0.02642
1748.72423,0.04638
1747.23444,0.04868
1745.74465,0.03977
1744.25487,0.05338
1742.76508,0.00837
1741.27529,0.01651
1739.78550,0.03754
1738.29571,0.04253
1736.80592,0.04674
1735.31614,0.03009
1733.82635,0.05042
1732.33656,0.04106
1730.84677,0.02288
1729.35698,0.04330
1727.86719,0.03803
1726.37740,0.02396
1724.88762,0.01473
1723.39783,0.04489
1721.90804,0.03652
1720.41825,0.01452
1718.92846,0.03995
1717.43867,0.02041
1715.94889,0.02581
1714.45910,0.04730
1712.96931,0.03749
1711.47952,0.02047
1709.98973,0.02999
1708.49994,0.02026
1707.01016,0.02060
1705.52037,0.02096
1704.03058,0.02015
1702.54079,0.01615
1701.05100,0.04833
1699.56121,0.02270
1698.07142,0.02199
1696.58164,0.02614
1695.09185,0.03191
1693.60206,0.04495
1692.11227,0.04034
1690.62248,0.04138
1689.13269,0.05610
1687.64291,0.07889
1686.15312,0.02297
1684.66333,0.03858
1683.17354,0.04297
1681.68375,0.05461
1680.19396,0.02371
1678.70417,0.02738
1677.21439,0.01661
1675.72460,0.06372
1674.23481,0.05300
1672.74502,0.06642
1671.25523,0.04853
1669.76544,0.06924
1668.27566,0.09238
1666.78587,0.07296
1665.29608,0.06643
1663.80629,0.06073
1662.31650,0.09683
1660.82671,0.09119
1659.33693,0.07834
1657.84714,0.08641
1656.35735,0.08807
1654.86756,0.08414
1653.37777,0.09872
1651.88798,0.10368
1650.39819,0.09501
1648.90841,0.06387
1647.41862,0.03678
1645.92883,0.03583
1644.43904,0.03490
1642.94925,0.04163
1641.45946,0.06928
1639.96968,0.06803
1638.47989,0.05958
1636.99010,0.05196
1635.50031,0.05642
1634.01052,0.01752
1632.52073,0.04855
1631.03094,0.02336
1629.54116,0.05203
1628.05137,0.04297
1626.56158,0.06768
1625.07179,0.06188
1623.58200,0.05772
1622.09221,0.05680
1620.60243,0.05832
1619.11264,0.06549
1617.62285,0.02930
1616.13306,0.05259
1614.64327,0.06064
1613.15348,0.03337
1611.66370,0.07362
1610.17391,0.04078
1608.68412,0.03368
1607.19433,0.04669
1605.70454,0.02197
1604.21475,0.04507
1602.72496,0.06821
1601.23518,0.05241
1599.74539,0.04627
1598.25560,0.03695
1596.76581,0.02444
1595.27602,0.03446
1593.78623,0.03566
1592.29645,0.02886
1590.80666,0.01566
1589.31687,0.03060
1587.82708,0.01826
1586.33729,0.03567
1584.84750,0.01856
1583.35771,0.04888
1581.86793,0.04146
1580.37814,0.00837
1578.88835,0.00979
1577.39856,0.00000
1575.90877,0.02918
1574.41898,0.01019
1572.92920,0.01934
1571.43941,0.00602
1569.94962,0.01241
1568.45983,0.01883
1566.97004,0.04015
1565.48025,0.03497
1563.99047,0.02420
1562.50068,0.03194
1561.01089,0.00837
1559.52110,0.01579
1558.03131,0.01600
1556.54152,0.02026
1555.05173,0.04463
1553.56195,0.00797
1552.07216,0.04686
1550.58237,0.03838
1549.09258,0.02349
1547.60279,0.04639
1546.11300,0.04442
1544.62322,0.04809
1543.13343,0.03894
1541.64364,0.01294
1540.15385,0.02674
1538.66406,0.04057
1537.17427,0.03635
1535.68448,0.02894
1534.19470,0.03280
1532.70491,0.05517
1531.21512,0.00607
1529.72533,0.02613
1528.23554,0.01247
1526.74575,0.01169
1525.25597,0.03263
1523.76618,0.01504
1522.27639,0.02559
1520.78660,0.03617
1519.29681,0.01062
1517.80702,0.02906
1516.31724,0.05314
1514.82745,0.03307
1513.33766,0.03069
1511.84787,0.02835
1510.35808,0.01318
1508.86829,0.01490
1507.37850,0.01987
1505.88872,0.07226
1504.39893,0.02346
1502.90914,0.01967
1501.41935,0.01350
1499.92956,0.01217
1498.43977,0.02775
1496.94999,0.02969
1495.46020,0.00837
1493.97041,0.04481
1492.48062,0.04834
1490.99083,0.06636
1489.50104,0.08923
1488.01125,0.09084
1486.52147,0.09247
1485.03168,0.12185
1483.54189,0.13518
1482.05210,0.15176
1480.56231,0.21014
1479.07252,0.22115
1477.58274,0.23218
1476.09295,0.24726
1474.60316,0.26478
1473.11337,0.26545
1471.62358,0.29588
1470.13379,0.30544
1468.64401,0.25960
1467.15422,0.27163
1465.66443,0.25155
1464.17464,0.23150
1462.68485,0.21871
1461.19506,0.16979
1459.70527,0.18115
1458.21549,0.14675
1456.72570,0.14692
1455.23591,0.16238
1453.74612,0.15297
1452.25633,0.11144
1450.76654,0.14546
1449.27676,0.12488
1447.78697,0.13807
1446.29718,0.11433
1444.80739,0.10387
1443.31760,0.09344
1441.82781,0.09549
1440.33802,0.06382
1438.84824,0.08119
1437.35845,0.06725
1435.86866,0.05495
1434.37887,0.05714
1432.88908,0.05212
1431.39929,0.05195
1429.90951,0.07189
1428.41972,0.08222
1426.92993,0.13435
1425.44014,0.10456
1423.95035,0.10493
1422.46056,0.10533
1420.97078,0.13588
1419.48099,0.15842
1417.99120,0.17054
1416.50141,0.20359
1415.01162,0.19649
1413.52183,0.18781
1412.03204,0.16148
1410.54226,0.19141
1409.05247,0.20611
1407.56268,0.20397
1406.07289,0.21230
1404.58310,0.21141
1403.09331,0.21056
1401.60353,0.19245
1400.11374,0.21856
1398.62395,0.24872
1397.13416,0.28533
1395.64437,0.27376
1394.15458,0.26865
1392.66479,0.26919
1391.17501,0.24324
1389.68522,0.26312
1388.19543,0.28623
1386.70564,0.27402
1385.21585,0.26185
1383.72606,0.26255
1382.23628,0.23837
1380.74649,0.23190
1379.25670,0.23750
1377.76691,0.24956
1376.27712,0.32994
1374.78733,0.38784
1373.29755,0.46345
1371.80776,0.53105
1370.31797,0.63885
1368.82818,0.69646
1367.33839,0.75410
1365.84860,0.90858
1364.35881,0.99961
1362.86903,1.04087
1361.37924,1.11187
1359.88945,1.20379
1358.39966,1.14310
1356.90987,1.04387
1355.42008,0.97680
1353.93030,0.91940
1352.44051,0.84194
1350.95072,0.76451
1349.46093,0.65658
1347.97114,0.60010
1346.48135,0.47615
1344.99156,0.48158
1343.50178,0.45008
1342.01199,0.36960
1340.52220,0.37109
1339.03241,0.31638
1337.54262,0.29141
1336.05283,0.28214
1334.56305,0.27290
1333.07326,0.25203
1331.58347,0.21191
1330.09368,0.21119
1328.60389,0.16068
1327.11410,0.13591
1325.62432,0.12723
1324.13453,0.13464
1322.64474,0.12843
1321.15495,0.10537
1319.66516,0.10644
1318.17537,0.10754
1316.68558,0.10144
1315.19580,0.09375
1313.70601,0.10297
1312.21622,0.06401
1310.72643,0.09416
1309.23664,0.09221
1307.74685,0.06859
1306.25707,0.09241
1304.76728,0.07889
1303.27749,0.06540
1301.78770,0.09250
1300.29791,0.07625
1298.80812,0.05521
1297.31834,0.07437
1295.82855,0.07266
1294.33876,0.06295
1292.84897,0.06210
1291.35918,0.05485
1289.86939,0.06008
1288.37960,0.06534
1286.88982,0.00837
1285.40003,0.00925
1283.91024,0.04953
1282.42045,0.03601
1280.93066,0.02573
1279.44087,0.04279
1277.95109,0.05024
1276.46130,0.08905
1274.97151,0.06683
1273.48172,0.04463
1271.99193,0.04416
1270.50214,0.04451
1269.01235,0.02802
1267.52257,0.03807
1266.03278,0.06824
1264.54299,0.03978
1263.05320,0.05714
1261.56341,0.08257
1260.07362,0.10802
1258.58384,0.09573
1257.09405,0.09151
1255.60426,0.07688
1254.11447,0.08557
1252.62468,0.07259
1251.13489,0.04117
1249.64511,0.02262
1248.15532,0.04267
1246.66553,0.03020
1245.17574,0.01776
1243.68595,0.04030
1242.19616,0.02350
1240.70637,0.01235
1239.21659,0.03818
1237.72680,0.03753
1236.23701,0.02325
1234.74722,0.01381
1233.25743,0.01204
1231.76764,0.01029
1230.27786,0.08449
1228.78807,0.05186
1227.29828,0.05944
1225.80849,0.04133
1224.31870,0.01120
1222.82891,0.01885
1221.33912,0.02894
1219.84934,0.01777
1218.35955,0.00663
1216.86976,0.04436
1215.37997,0.06686
1213.89018,0.05082
1212.40039,0.03240
1210.91061,0.04855
1209.42082,0.05589
1207.93103,0.03474
1206.44124,0.01361
1204.95145,0.04273
1203.46166,0.03250
1201.97188,0.03516
1200.48209,0.00892
1198.99230,0.02968
1197.50251,0.04162
1196.01272,0.00860
1194.52293,0.01948
1193.03314,0.03038
1191.54336,0.00837
1190.05357,0.01938
1188.56378,0.00953
1187.07399,0.00855
1185.58420,0.02286
1184.09441,0.02675
1182.60463,0.03428
1181.11484,0.04184
1179.62505,0.01047
1178.13526,0.04339
1176.64547,0.03456
1175.15568,0.04023
1173.66589,0.02021
1172.17611,0.04601
1170.68632,0.03970
1169.19653,0.03342
1167.70674,0.03681
1166.21695,0.01452
1164.72716,0.07098
1163.23738,0.03509
1161.74759,0.03698
1160.25780,0.01801
1158.76801,0.02959
1157.27822,0.04120
1155.78843,0.02151
1154.29865,0.05326
1152.80886,0.03604
1151.31907,0.03651
1149.82928,0.02657
1148.33949,0.05361
1146.84970,0.04292
1145.35991,0.03225
1143.87013,0.05054
1142.38034,0.05921
1140.89055,0.09121
1139.40076,0.09592
1137.91097,0.09342
1136.42118,0.08373
1134.93140,0.09735
1133.44161,0.11101
1131.95182,0.10782
1130.46203,0.09582
1128.97224,0.09349
1127.48245,0.12333
1125.99266,0.11543
1124.50288,0.11880
1123.01309,0.09690
1121.52330,0.07502
1120.03351,0.09856
1118.54372,0.09803
1117.05393,0.16019
1115.56415,0.15087
1114.07436,0.16729
1112.58457,0.21186
1111.09478,0.25645
1109.60499,0.24002
1108.11520,0.30796
1106.62542,0.33737
1105.13563,0.37565
1103.64584,0.36816
1102.15605,0.36391
1100.66626,0.39222
1099.17647,0.42056
1097.68668,0.45898
1096.19690,0.53357
1094.70711,0.54391
1093.21732,0.64105
1091.72753,0.60647
1090.23774,0.61890
1088.74795,0.63137
1087.25817,0.62177
1085.76838,0.66522
1084.27859,0.69825
1082.78880,0.73453
1081.29901,0.73468
1079.80922,0.71396
1078.31943,0.74108
1076.82965,0.76822
1075.33986,0.78455
1073.85007,0.75270
1072.36028,0.73453
1070.87049,0.67382
1069.38070,0.64205
1067.89092,0.66735
1066.40113,0.69267
1064.91134,0.62805
1063.42155,0.63013
1061.93176,0.52218
1060.44197,0.52833
1058.95219,0.49676
1057.46240,0.47284
1055.97261,0.44895
1054.48282,0.40861
1052.99303,0.41009
1051.50324,0.38828
1050.01345,0.35526
1048.52367,0.32388
1047.03388,0.33952
1045.54409,0.35518
1044.05430,0.32147
1042.56451,0.23476
1041.07472,0.25332
1039.58494,0.25423
1038.09515,0.26963
1036.60536,0.25734
1035.11557,0.24508
1033.62578,0.25574
1032.13599,0.22947
1030.64620,0.19761
1029.15642,0.20434
1027.66663,0.21310
1026.17684,0.22189
1024.68705,0.21102
1023.19726,0.25723
1021.70747,0.28498
1020.21769,0.26536
1018.72790,0.31566
1017.23811,0.36157
1015.74832,0.40750
1014.25853,0.42495
1012.76874,0.54445
1011.27896,0.66478
1009.78917,0.71765
1008.29938,0.77939
1006.80959,0.81505
1005.31980,0.85073
1003.83001,0.91817
1002.34022,1.07562
1000.85044,1.23149
999.36065,1.27411
997.87086,1.33203
996.38107,1.38997
994.89128,1.47204
993.40149,1.55413
991.91171,1.68847
990.42192,1.64289
988.93213,1.77407
987.44234,1.73778
985.95255,1.70151
984.46276,1.76690
982.97297,1.64272
981.48319,1.68566
979.99340,1.64027
978.50361,1.63507
977.01382,1.62989
975.52403,1.65849
974.03424,1.65578
972.54446,1.48359
971.05467,1.41586
969.56488,1.39234
968.07509,1.35841
966.58530,1.32451
965.09551,1.30590
963.60573,1.26723
962.11594,1.23019
960.62615,1.22291
959.13636,1.22409
957.64657,1.22529
956.15678,1.12570
954.66699,1.03257
953.17721,0.94669
951.68742,0.96849
950.19763,0.96542
948.70784,0.96237
947.21805,0.97702
945.72826,0.96117
944.23848,0.94857
942.74869,0.95366
941.25890,0.87523
939.76911,0.92738
938.27932,0.97955
936.78953,0.98556
935.29974,1.01569
933.80996,0.92374
932.32017,0.87279
930.83038,0.89417
929.34059,0.91558
927.85080,0.95871
926.36101,0.98740
924.87123,1.10931
923.38144,1.06656
921.89165,1.08489
920.40186,1.10325
918.91207,1.17787
917.42228,1.27742
915.93250,1.30229
914.44271,1.39868
912.95292,1.47181
911.46313,1.54496
909.97334,1.64063
908.48355,1.72830
906.99376,1.81438
905.50398,1.85230
904.01419,1.83802
902.52440,1.82376
901.03461,1.84087
899.54482,1.89737
898.05503,1.90970
896.56525,2.00000
895.07546,1.99592
893.58567,1.99188
892.09588,1.93363
890.60609,1.85291
889.11630,1.78829
887.62651,1.72128
886.13673,1.69046
884.64694,1.65966
883.15715,1.60720
881.66736,1.52504
880.17757,1.38908
878.68778,1.33911
877.19800,1.28917
875.70821,1.10429
874.21842,1.06725
872.72863,0.99088
871.23884,0.90570
869.74905,0.83982
868.25927,0.77398
866.76948,0.71217
865.27969,0.63835
863.78990,0.59186
862.30011,0.53818
860.81032,0.55883
859.32053,0.57951
857.83075,0.50984
856.34096,0.41529
854.85117,0.38343
853.36138,0.33874
851.87159,0.30252
850.38180,0.26632
848.89202,0.25948
847.40223,0.26230
845.91244,0.19526
844.42265,0.17724
842.93286,0.15926
841.44307,0.13648
839.95329,0.13302
838.46350,0.13359
836.97371,0.11893
835.48392,0.09908
833.99413,0.07925
832.50434,0.09198
831.01455,0.09511
829.52477,0.10468
828.03498,0.11911
826.54519,0.10343
825.05540,0.08778
823.56561,0.08301
822.07582,0.00837
820.58604,0.03995
819.09625,0.04062
817.60646,0.04133
816.11667,0.02238
814.62688,0.04523
813.13709,0.04802
811.64730,0.04281
810.15752,0.02557
808.66773,0.00837
807.17794,0.02870
805.68815,0.06112
804.19836,0.07910
802.70857,0.08386
801.21879,0.08864
799.72900,0.12116
798.23921,0.16737
796.74942,0.17665
795.25963,0.16949
793.76984,0.16236
792.28006,0.22394
790.79027,0.20040
789.30048,0.23151
787.81069,0.25541
786.32090,0.25605
784.83111,0.25671
783.34132,0.28391
781.85154,0.27740
780.36175,0.29823
778.87196,0.33756
777.38217,0.37692
775.89238,0.36650
774.40259,0.43002
772.91281,0.45661
771.42302,0.44064
769.93323,0.42471
768.44344,0.40558
766.95365,0.39051
765.46386,0.40438
763.97407,0.34115
762.48429,0.32736
760.99450,0.31360
759.50471,0.29946
758.01492,0.22268
756.52513,0.18610
755.03534,0.18932
753.54556,0.19256
752.05577,0.18097
750.56598,0.12683
749.07619,0.10726
747.58640,0.07325
746.09661,0.03927
744.60683,0.05112
743.11704,0.05094
741.62725,0.06123
740.13746,0.04182
738.64767,0.02244
737.15788,0.06173
735.66809,0.05767
734.17831,0.04078
732.68852,0.04200
731.19873,0.04324
729.70894,0.04250
728.21915,0.05625
726.72936,0.04914
725.23958,0.03804
723.74979,0.03821
722.26000,0.03841
720.77021,0.05069
719.28042,0.00837
717.79063,0.06693
716.30084,0.06326
714.81106,0.05962
713.32127,0.05962
711.83148,0.07973
710.34169,0.07336
708.85190,0.07666
707.36211,0.07998
705.87233,0.04075
704.38254,0.03128
702.89275,0.02665
701.40296,0.03289
699.91317,0.03916
698.42338,0.02819
696.93360,0.03893
695.44381,0.03926
693.95402,0.06010
692.46423,0.08097
690.97444,0.01390
689.48465,0.01594
687.99486,0.01721
686.50508,0.01569
685.01529,0.01420
683.52550,0.02519
682.03571,0.04424
680.54592,0.03359
679.05613,0.02097
677.56635,0.00837
676.07656,0.01857
674.58677,0.03201
673.09698,0.03262
671.60719,0.03647
670.11740,0.04036
668.62761,0.01775
667.13783,0.08837
665.64804,0.06582
664.15825,0.04330
662.66846,0.10516
661.17867,0.05859
659.68888,0.05544
658.19910,0.04066
656.70931,0.02590
655.21952,0.00837
653.72973,0.01322
652.23994,0.03738
650.75015,0.03506
649.26037,0.03276
647.77058,0.03612
646.28079,0.09333
644.79100,0.01480
643.30121,0.01382
641.81142,0.01286
640.32163,0.03242
638.83185,0.03433
637.34206,0.04592
635.85227,0.05873
634.36248,0.07157
632.87269,0.03824
631.38290,0.06600
629.89312,0.04156
628.40333,0.03965
626.91354,0.03776
625.42375,0.02868
623.93396,0.00837
622.44417,0.01098
620.95438,0.01361
619.46460,0.02632
617.97481,0.05593
616.48502,0.08475
614.99523,0.07344
613.50544,0.06216
612.01565,0.07821
610.52587,0.05091
609.03608,0.06301
607.54629,0.06268
606.05650,0.06237
604.56671,0.13561
603.07692,0.08434
601.58714,0.08733
600.09735,0.09035
598.60756,0.09059
597.11777,0.07639
595.62798,0.13050
594.13819,0.11997
592.64840,0.10947
591.15862,0.16046
589.66883,0.14720
588.17904,0.17092
586.68925,0.16294
585.19946,0.15498
583.70967,0.14906
582.21989,0.22190
580.73010,0.19274
579.24031,0.16360
577.75052,0.22286
576.26073,0.25082
574.77094,0.31576
573.28115,0.33534
571.79137,0.35494
570.30158,0.41675
568.81179,0.46654
567.32200,0.48703
565.83221,0.50755
564.34242,0.50519
562.85264,0.53340
561.36285,0.60822
559.87306,0.64452
558.38327,0.68084
556.89348,0.67621
555.40369,0.74070
553.91391,0.75220
552.42412,0.76372
550.93433,0.84758
549.44454,0.88727
547.95475,0.92700
546.46496,0.92698
544.97517,0.92699
543.48539,0.95153
541.99560,0.96646
540.50581,0.98101
539.01602,0.99559
537.52623,1.02265
536.03644,0.94289
534.54666,1.06159
533.05687,1.06022
531.56708,1.05886
530.07729,1.06839
528.58750,0.99921
527.09771,0.98749
525.60792,0.97581
524.11814,0.92117
522.62835,0.86174
521.13856,0.91882
519.64877,0.86306
518.15898,0.80732
516.66919,0.74880
515.17941,0.70638
513.68962,0.69812
512.19983,0.68990
510.71004,0.63390
509.22025,0.55382
507.73046,0.55010
506.24068,0.53113
504.75089,0.51220
503.26110,0.44669
501.77131,0.38764
500.28152,0.37682
498.79173,0.36603
497.30194,0.38981
495.81216,0.28025
494.32237,0.27476
492.83258,0.26930
491.34279,0.17348
489.85300,0.18455
488.36321,0.16832
486.87343,0.17863
485.38364,0.18897
483.89385,0.17604
482.40406,0.21215
480.91427,0.16432
479.42448,0.11653
477.93469,0.13905
476.44491,0.07806
474.95512,0.09943
473.46533,0.12084
471.97554,0.15633
470.48575,0.13963
468.99596,0.11251
467.50618,0.12117
466.01639,0.12985
464.52660,0.13415
463.03681,0.10151
461.54702,0.11028
460.05723,0.11908
458.56745,0.16526
457.07766,0.19298
455.58787,0.19584
454.09808,0.19872
452.60829,0.21046
451.11850,0.22143
449.62871,0.22117
448.13893,0.22095
446.64914,0.25851
445.15935,0.37965
443.66956,0.42048
442.17977,0.42839
440.68998,0.43634
439.20020,0.48046
437.71041,0.52783
436.22062,0.56759
434.73083,0.60737
433.24104,0.67410
431.75125,0.69828
430.26146,0.73855
428.77168,0.77885
427.28189,0.79186
425.79210,0.83542
424.30231,0.82680
422.81252,0.81820
421.32273,0.90442
419.83295,0.92159
418.34316,0.93316
416.85337,0.94475
415.36358,0.91058
413.87379,0.83627
412.38400,0.83348
410.89422,0.83072
409.40443,0.89226
407.91464,0.88233
406.42485,0.84993
404.93506,0.84688
403.44527,0.84386
401.95548,0.84287
400.46570,0.84834
398.97591,0.89279
397.48612,0.93728
395.99633,0.85928
394.50654,0.84718
393.01675,0.85439
391.52697,0.86163
390.03718,0.80623
388.54739,0.86333
387.05760,0.83209
385.56781,0.80087
384.07802,0.87733
382.58824,0.73049
381.09845,0.74555
379.60866,0.76063
378.11887,0.73116
376.62908,0.67279
375.13929,0.65623
373.64950,0.63969
372.15972,0.57016
370.66993,0.48137
369.18014,0.43318
367.69035,0.38502
366.20056,0.35818
364.71077,0.31369
363.22099,0.29373
361.73120,0.27379
360.24141,0.23983
358.75162,0.18420
357.26183,0.19086
355.77204,0.19754
354.28225,0.13476
352.79247,0.13709
351.30268,0.10208
349.81289,0.06710
348.32310,0.06629
346.83331,0.04542
345.34352,0.04105
343.85374,0.03671
342.36395,0.05208
340.87416,0.02811
339.38437,0.01822
337.89458,0.00837
336.40479,0.01136
334.91501,0.06419
333.42522,0.06965
331.93543,0.07514
330.44564,0.01317
328.95585,0.02594
327.46606,0.02187
325.97627,0.01782
324.48649,0.03824
322.99670,0.06671
321.50691,0.04982
320.01712,0.03296
318.52733,0.07036
317.03754,0.01699
315.54776,0.01267
314.05797,0.00837
312.56818,0.07532
311.07839,0.04669
309.58860,0.06228
308.09881,0.07789
306.60902,0.00918
305.11924,0.03529
303.62945,0.05581
302.13966,0.07635
300.64987,0.01096
299.16008,0.00837
