1778.52000,0.07690
1777.03021,0.01545
1775.54042,0.09462
1774.05063,0.06697
1772.56085,0.12370
1771.07106,0.00613
1769.58127,0.11353
1768.09148,0.06912
1766.60169,0.11753
1765.11190,0.04506
1763.62212,0.09071
1762.13233,0.03517
1760.64254,0.08651
1759.15275,0.10694
1757.66296,0.10209
1756.17317,0.18444
1754.68339,0.06437
1753.19360,0.07929
1751.70381,0.07174
1750.21402,0.03330
1748.72423,0.00613
1747.23444,0.03637
1745.74465,0.08351
1744.25487,0.10256
1742.76508,0.06540
1741.27529,0.01702
1739.78550,0.14581
1738.29571,0.10593
1736.80592,0.10262
1735.31614,0.08810
1733.82635,0.13265
1732.33656,0.01697
1730.84677,0.06720
1729.35698,0.10059
1727.86719,0.11432
1726.37740,0.03811
1724.88762,0.04628
1723.39783,0.07135
1721.90804,0.13299
1720.41825,0.01472
1718.92846,0.00613
1717.43867,0.08586
1715.94889,0.08126
1714.45910,0.00922
1712.96931,0.06935
1711.47952,0.05359
1709.98973,0.04911
1708.49994,0.10089
1707.01016,0.08803
1705.52037,0.07520
1704.03058,0.12144
1702.54079,0.12835
1701.05100,0.11560
1699.56121,0.12818
1698.07142,0.14080
1696.58164,0.08596
1695.09185,0.09020
1693.60206,0.09727
1692.11227,0.04252
1690.62248,0.06933
1689.13269,0.12148
1687.64291,0.11180
1686.15312,0.11339
1684.66333,0.06721
1683.17354,0.10260
1681.68375,0.07897
1680.19396,0.14254
1678.70417,0.19488
1677.21439,0.13479
1675.72460,0.09721
1674.23481,0.14402
1672.74502,0.08120
1671.25523,0.06058
1669.76544,0.07654
1668.27566,0.12346
1666.78587,0.04950
1665.29608,0.06836
1663.80629,0.05351
1662.31650,0.05836
1660.82671,0.06325
1659.33693,0.17219
1657.84714,0.07872
1656.35735,0.10337
1654.86756,0.06619
1653.37777,0.06560
1651.88798,0.15781
1650.39819,0.20226
1648.90841,0.12302
1647.41862,0.02693
1645.92883,0.03631
1644.43904,0.04573
1642.94925,0.10719
1641.45946,0.13493
1639.96968,0.08960
1638.47989,0.14552
1636.99010,0.06931
1635.50031,0.03812
1634.01052,0.09412
1632.52073,0.08830
1631.03094,0.07407
1629.54116,0.08235
1628.05137,0.11598
1626.56158,0.09339
1625.07179,0.09333
1623.58200,0.00613
1622.09221,0.01674
1620.60243,0.06674
1619.11264,0.06897
1617.62285,0.06280
1616.13306,0.07352
1614.64327,0.04210
1613.15348,0.08099
1611.66370,0.06931
1610.17391,0.04359
1608.68412,0.01509
1607.19433,0.09346
1605.70454,0.10719
1604.21475,0.10971
1602.72496,0.11225
1601.23518,0.01641
1599.74539,0.01619
1598.25560,0.07505
1596.76581,0.11707
1595.27602,0.10288
1593.78623,0.09435
1592.29645,0.08584
1590.80666,0.02675
1589.31687,0.01830
1587.82708,0.02112
1586.33729,0.09989
1584.84750,0.03529
1583.35771,0.11130
1581.86793,0.17328
1580.37814,0.04972
1578.88835,0.09770
1577.39856,0.05573
1575.90877,0.08409
1574.41898,-0.00000
1572.92920,0.03806
1571.43941,0.02553
1569.94962,0.04537
1568.45983,0.06524
1566.97004,0.01906
1565.48025,0.01227
1563.99047,0.04206
1562.50068,0.09437
1561.01089,0.00613
1559.52110,0.04287
1558.03131,0.04308
1556.54152,0.02083
1555.05173,0.08015
1553.56195,0.03827
1552.07216,0.10890
1550.58237,0.02771
1549.09258,0.07027
1547.60279,0.18878
1546.11300,0.30450
1544.62322,0.29934
1543.13343,0.20424
1541.64364,0.12042
1540.15385,0.07458
1538.66406,0.02877
1537.17427,0.07999
1535.68448,0.04126
1534.19470,0.07004
1532.70491,0.07074
1531.21512,0.04897
1529.72533,0.03847
1528.23554,0.05331
1526.74575,0.03162
1525.25597,0.05214
1523.76618,0.01083
1522.27639,0.05390
1520.78660,0.00702
1519.29681,0.07826
1517.80702,0.00613
1516.31724,0.10248
1514.82745,0.03015
1513.33766,0.03096
1511.84787,0.03180
1510.35808,0.00173
1508.86829,0.01634
1507.37850,0.05065
1505.88872,0.00345
1504.39893,0.08281
1502.90914,0.10314
1501.41935,0.06446
1499.92956,0.00613
1498.43977,0.06531
1496.94999,0.03174
1495.46020,0.05443
1493.97041,0.02091
1492.48062,0.05209
1490.99083,0.10016
1489.50104,0.12578
1488.01125,0.09940
1486.52147,0.07305
1485.03168,0.16061
1483.54189,0.14134
1482.05210,0.16147
1480.56231,0.17882
1479.07252,0.20182
1477.58274,0.28951
1476.09295,0.16917
1474.60316,0.20912
1473.11337,0.24348
1471.62358,0.24412
1470.13379,0.20543
1468.64401,0.25112
1467.15422,0.15906
1465.66443,0.21325
1464.17464,0.26745
1462.68485,0.11362
1461.19506,0.10603
1459.70527,0.12377
1458.21549,0.17247
1456.72570,0.07780
1455.23591,0.05626
1453.74612,0.01788
1452.25633,0.03857
1450.76654,0.05930
1449.27676,0.11660
1447.78697,0.09520
1446.29718,0.11039
1444.80739,0.06655
1443.31760,0.02274
1441.82781,0.11112
1440.33802,0.05331
1438.84824,0.01802
1437.35845,0.08398
1435.86866,0.08812
1434.37887,0.02480
1432.88908,0.08522
1431.39929,0.11756
1429.90951,0.05995
1428.41972,0.03329
1426.92993,0.12476
1425.44014,0.13471
1423.95035,0.09268
1422.46056,0.05067
1420.97078,0.10008
1419.48099,0.17481
1417.99120,0.21021
1416.50141,0.11912
1415.01162,0.15739
1413.52183,0.17319
1412.03204,0.11873
1410.54226,0.14583
1409.05247,0.18703
1407.56268,0.16077
1406.07289,0.18234
1404.58310,0.14489
1403.09331,0.10747
1401.60353,0.21347
1400.11374,0.16767
1398.62395,0.27654
1397.13416,0.28703
1395.64437,0.21039
1394.15458,0.26592
1392.66479,0.20620
1391.17501,0.17463
1389.68522,0.21338
1388.19543,0.25778
1386.70564,0.25019
1385.21585,0.24263
1383.72606,0.32929
1382.23628,0.14324
1380.74649,0.21309
1379.25670,0.27172
1377.76691,0.31069
1376.27712,0.34970
1374.78733,0.37186
1373.29755,0.43622
1371.80776,0.41064
1370.31797,0.69156
1368.82818,0.72789
1367.33839,0.76425
1365.84860,0.93841
1364.35881,1.16603
1362.86903,1.25589
1361.37924,1.28674
1359.88945,1.29232
1358.39966,1.31197
1356.90987,1.14328
1355.42008,1.17424
1353.93030,1.13775
1352.44051,1.16877
1350.95072,1.19981
1349.46093,1.01157
1347.97114,0.74183
1346.48135,0.61831
1344.99156,0.45265
1343.50178,0.41355
1342.01199,0.32105
1340.52220,0.31574
1339.03241,0.27391
1337.54262,0.23773
1336.05283,0.25781
1334.56305,0.27792
1333.07326,0.14623
1331.58347,0.16358
1330.09368,0.19502
1328.60389,0.29116
1327.11410,0.08929
1325.62432,0.17424
1324.13453,0.18049
1322.64474,0.05742
1321.15495,0.14808
1319.66516,0.08975
1318.17537,0.03144
1316.68558,0.10531
1315.19580,0.10048
1313.70601,0.05632
1312.21622,0.08528
1310.72643,0.09460
1309.23664,0.06458
1307.74685,0.03458
1306.25707,0.10584
1304.76728,0.10121
1303.27749,0.09661
1301.78770,0.17920
1300.29791,0.00876
1298.80812,0.10827
1297.31834,0.07004
1295.82855,0.12744
1294.33876,0.06677
1292.84897,0.00613
1291.35918,0.15802
1289.86939,0.13982
1288.37960,0.12165
1286.88982,0.08243
1285.40003,0.07978
1283.91024,0.09404
1282.42045,0.15612
1280.93066,0.06077
1279.44087,0.04136
1277.95109,0.09509
1276.46130,0.03357
1274.97151,0.03815
1273.48172,0.04276
1271.99193,0.10223
1270.50214,0.11111
1269.01235,0.08909
1267.52257,0.08116
1266.03278,0.13231
1264.54299,0.11318
1263.05320,0.14189
1261.56341,0.12142
1260.07362,0.10098
1258.58384,0.07635
1257.09405,0.16421
1255.60426,0.07215
1254.11447,0.13758
1252.62468,0.17773
1251.13489,0.07451
1249.64511,0.14846
1248.15532,0.13809
1246.66553,0.09259
1245.17574,0.04713
1243.68595,0.13524
1242.19616,0.18122
1240.70637,0.08382
1239.21659,0.11016
1237.72680,0.05781
1236.23701,0.12076
1234.74722,0.13876
1233.25743,0.07243
1231.76764,0.00613
1230.27786,0.09127
1228.78807,0.10334
1227.29828,0.12668
1225.80849,0.07131
1224.31870,0.02723
1222.82891,0.04784
1221.33912,0.02912
1219.84934,0.04697
1218.35955,0.06486
1216.86976,0.08558
1215.37997,0.06135
1213.89018,0.07932
1212.40039,0.18729
1210.91061,0.08441
1209.42082,0.18401
1207.93103,0.12196
1206.44124,0.05993
1204.95145,0.11744
1203.46166,0.07375
1201.97188,0.08632
1200.48209,0.00613
1198.99230,0.03065
1197.50251,0.10862
1196.01272,0.15850
1194.52293,0.10860
1193.03314,0.05872
1191.54336,0.06370
1190.05357,0.09401
1188.56378,0.10186
1187.07399,0.06193
1185.58420,0.07827
1184.09441,0.03840
1182.60463,0.05339
1181.11484,0.06841
1179.62505,0.00613
1178.13526,0.06369
1176.64547,0.16908
1175.15568,0.10298
1173.66589,0.15781
1172.17611,0.09176
1170.68632,0.11291
1169.19653,0.13409
1167.70674,0.04001
1166.21695,0.10623
1164.72716,0.19779
1163.23738,0.03912
1161.74759,0.07731
1160.25780,0.05367
1158.76801,0.03708
1157.27822,0.02053
1155.78843,0.09257
1154.29865,0.12246
1152.80886,0.13270
1151.31907,0.06143
1149.82928,0.19263
1148.33949,0.08205
1146.84970,0.09802
1145.35991,0.11403
1143.87013,0.11881
1142.38034,0.10394
1140.89055,0.15658
1139.40076,0.12490
1137.91097,0.14105
1136.42118,0.14597
1134.93140,0.13827
1133.44161,0.13060
1131.95182,0.17779
1130.46203,0.13503
1128.97224,0.13447
1127.48245,0.12270
1125.99266,0.12501
1124.50288,0.13297
1123.01309,0.18736
1121.52330,0.24177
1120.03351,0.22732
1118.54372,0.30850
1117.05393,0.19008
1115.56415,0.24039
1114.07436,0.23168
1112.58457,0.28767
1111.09478,0.34368
1109.60499,0.33506
1108.11520,0.32365
1106.62542,0.46129
1105.13563,0.45275
1103.64584,0.44424
1102.15605,0.53136
1100.66626,0.47791
1099.17647,0.42450
1097.68668,0.48077
1096.19690,0.43866
1094.70711,0.56246
1093.21732,0.59632
1091.72753,0.64427
1090.23774,0.61774
1088.74795,0.59123
1087.25817,0.56054
1085.76838,0.69295
1084.27859,0.69043
1082.78880,0.62045
1081.29901,0.77544
1079.80922,0.67460
1078.31943,0.69890
1076.82965,0.72323
1075.33986,0.79960
1073.85007,0.63139
1072.36028,0.65721
1070.87049,0.52841
1069.38070,0.57960
1067.89092,0.56333
1066.40113,0.54708
1064.91134,0.50556
1063.42155,0.56811
1061.93176,0.43667
1060.44197,0.47115
1058.95219,0.48317
1057.46240,0.40242
1055.97261,0.32171
1054.48282,0.35068
1052.99303,0.42186
1051.50324,0.33560
1050.01345,0.36466
1048.52367,0.15756
1047.03388,0.19792
1045.54409,0.23831
1044.05430,0.29278
1042.56451,0.16733
1041.07472,0.11783
1039.58494,0.06554
1038.09515,0.12575
1036.60536,0.07915
1035.11557,0.03257
1033.62578,0.12379
1032.13599,0.11101
1030.64620,0.15449
1029.15642,0.14458
1027.66663,0.19514
1026.17684,0.24574
1024.68705,0.20498
1023.19726,0.21205
1021.70747,0.19384
1020.21769,0.27970
1018.72790,0.23624
1017.23811,0.25608
1015.74832,0.27594
1014.25853,0.38440
1012.76874,0.34668
1011.27896,0.52268
1009.78917,0.64528
1008.29938,0.64420
1006.80959,0.71203
1005.31980,0.77989
1003.83001,0.76202
1002.34022,0.92694
1000.85044,1.12000
999.36065,1.30185
997.87086,1.36423
996.38107,1.42663
994.89128,1.50453
993.40149,1.72304
991.91171,1.76445
990.42192,1.89585
988.93213,1.91482
987.44234,1.85930
985.95255,1.80381
984.46276,2.00000
982.97297,1.91786
981.48319,1.72046
979.99340,1.71710
978.50361,1.69409
977.01382,1.67110
975.52403,1.85340
974.03424,1.87546
972.54446,1.78227
971.05467,1.60194
969.56488,1.58472
968.07509,1.47334
966.58530,1.36198
965.09551,1.37577
963.60573,1.32492
962.11594,1.39501
960.62615,1.36952
959.13636,1.30892
957.64657,1.24834
956.15678,1.04299
954.66699,1.21444
953.17721,1.05132
951.68742,0.85167
950.19763,0.87137
948.70784,0.89110
947.21805,0.90523
945.72826,0.81817
944.23848,0.90265
942.74869,0.87188
941.25890,0.75397
939.76911,0.73450
938.27932,0.71506
936.78953,0.76032
935.29974,0.69314
933.80996,0.80312
932.32017,0.85409
930.83038,0.79964
929.34059,0.74523
927.85080,0.87782
926.36101,0.78269
924.87123,0.90128
923.38144,0.84275
921.89165,0.89813
920.40186,0.95354
918.91207,0.95978
917.42228,1.03914
915.93250,0.90203
914.44271,1.01238
912.95292,1.06793
911.46313,1.12351
909.97334,1.11304
908.48355,0.90859
906.99376,0.96847
905.50398,1.27300
904.01419,1.26545
902.52440,1.25794
901.03461,1.39104
899.54482,1.42575
898.05503,1.34241
896.56525,1.66397
895.07546,1.55959
893.58567,1.45524
892.09588,1.42824
890.60609,1.32254
889.11630,1.22530
887.62651,1.24056
886.13673,1.16306
884.64694,1.08559
883.15715,1.03627
881.66736,1.08819
880.17757,1.12890
878.68778,1.07685
877.19800,1.02483
875.70821,0.88286
874.21842,0.95741
872.72863,0.86049
871.23884,0.76640
869.74905,0.68640
868.25927,0.60643
866.76948,0.69238
865.27969,0.67994
863.78990,0.61693
862.30011,0.54550
860.81032,0.59360
859.32053,0.64173
857.83075,0.41294
856.34096,0.39224
854.85117,0.48685
853.36138,0.44090
851.87159,0.38795
850.38180,0.33503
848.89202,0.40725
847.40223,0.26863
845.91244,0.33248
844.42265,0.33590
842.93286,0.33936
841.44307,0.18960
839.95329,0.00613
838.46350,0.14553
836.97371,0.16686
835.48392,0.12495
833.99413,0.08308
832.50434,0.14104
831.01455,0.21591
829.52477,0.09399
828.03498,0.05925
826.54519,0.05547
825.05540,0.05173
823.56561,0.05925
822.07582,0.25238
820.58604,0.08845
819.09625,0.05248
817.60646,0.01654
816.11667,0.08325
814.62688,0.10500
813.13709,0.15771
811.64730,0.03332
810.15752,0.06921
808.66773,0.10514
807.17794,0.00613
805.68815,0.13531
804.19836,0.10144
802.70857,0.09993
801.21879,0.09845
799.72900,0.10121
798.23921,0.14899
796.74942,0.12932
795.25963,0.16169
793.76984,0.19409
792.28006,0.23917
790.79027,0.32083
789.30048,0.36878
787.81069,0.26492
786.32090,0.27638
784.83111,0.28786
783.34132,0.26563
781.85154,0.34465
780.36175,0.39558
778.87196,0.40295
777.38217,0.41036
775.89238,0.55697
774.40259,0.45618
772.91281,0.37510
771.42302,0.39668
769.93323,0.41828
768.44344,0.48069
766.95365,0.36317
765.46386,0.36377
763.97407,0.38127
762.48429,0.37068
760.99450,0.36012
759.50471,0.31022
758.01492,0.25192
756.52513,0.19364
755.03534,0.19444
753.54556,0.19527
752.05577,0.09209
750.56598,0.14921
749.07619,0.07139
747.58640,0.09482
746.09661,0.11829
744.60683,0.08273
743.11704,0.07251
741.62725,0.02857
740.13746,0.05918
738.64767,0.08981
737.15788,0.10782
735.66809,0.10898
734.17831,0.09612
732.68852,0.11983
731.19873,0.14358
729.70894,0.10268
728.21915,0.05337
726.72936,0.09688
725.23958,0.11512
723.74979,0.10948
722.26000,0.10387
720.77021,0.09126
719.28042,0.15740
717.79063,0.10267
716.30084,0.09436
714.81106,0.08608
713.32127,0.00613
711.83148,0.14519
710.34169,0.16057
708.85190,0.10005
707.36211,0.03957
705.87233,0.10283
704.38254,0.02834
702.89275,0.04948
701.40296,0.08892
699.91317,0.12839
698.42338,0.04558
696.93360,0.30583
695.44381,0.26806
693.95402,0.28937
692.46423,0.31071
690.97444,0.14369
689.48465,0.05543
687.99486,0.02061
686.50508,0.02660
685.01529,0.03261
683.52550,0.09348
682.03571,0.06159
680.54592,0.03817
679.05613,0.06538
677.56635,0.09262
676.07656,0.03835
674.58677,0.07971
673.09698,0.14640
671.60719,0.13861
670.11740,0.13085
668.62761,0.03735
667.13783,0.12665
665.64804,0.09367
664.15825,0.06071
662.66846,0.01232
661.17867,0.00613
659.68888,0.03642
658.19910,0.07940
656.70931,0.12240
655.21952,0.08249
653.72973,0.04823
652.23994,0.16301
650.75015,0.15130
649.26037,0.13962
647.77058,0.20950
646.28079,0.22037
644.79100,0.27906
643.30121,0.27452
641.81142,0.27000
640.32163,0.14883
638.83185,0.03331
637.34206,0.03310
635.85227,0.08212
634.36248,0.13117
632.87269,0.15073
631.38290,0.02410
629.89312,0.11682
628.40333,0.13365
626.91354,0.15050
625.42375,0.23768
623.93396,0.13369
622.44417,0.13798
620.95438,0.14229
619.46460,0.18460
617.97481,0.13133
616.48502,0.05841
614.99523,0.11064
613.50544,0.16289
612.01565,0.14348
610.52587,0.05099
609.03608,0.17503
607.54629,0.17116
606.05650,0.16732
604.56671,0.15930
603.07692,0.10913
601.58714,0.13208
600.09735,0.15507
598.60756,0.13029
597.11777,0.12521
595.62798,0.10611
594.13819,0.05611
592.64840,0.00613
591.15862,0.07660
589.66883,0.19771
588.17904,0.25418
586.68925,0.21649
585.19946,0.17882
583.70967,0.31973
582.21989,0.33414
580.73010,0.29375
579.24031,0.25338
577.75052,0.28474
576.26073,0.35269
574.77094,0.30819
573.28115,0.33261
571.79137,0.35705
570.30158,0.39980
568.81179,0.55224
567.32200,0.55287
565.83221,0.55353
564.34242,0.52891
562.85264,0.67583
561.36285,0.70188
559.87306,0.73499
558.38327,0.76812
556.89348,0.74083
555.40369,0.85135
553.91391,0.88878
552.42412,0.92625
550.93433,0.80066
549.44454,0.83256
547.95475,0.98539
546.46496,0.99766
544.97517,1.00997
543.48539,1.01948
541.99560,0.97561
540.50581,0.98377
539.01602,0.99197
537.52623,1.11407
536.03644,1.05906
534.54666,1.01532
533.05687,0.95756
531.56708,0.89982
530.07729,0.82805
528.58750,0.81535
527.09771,0.84768
525.60792,0.88003
524.11814,0.81680
522.62835,0.72268
521.13856,0.65390
519.64877,0.66668
518.15898,0.67948
516.66919,0.57704
515.17941,0.60115
513.68962,0.53954
512.19983,0.47795
510.71004,0.65398
509.22025,0.56011
507.73046,0.39879
506.24068,0.37246
504.75089,0.34616
503.26110,0.34800
501.77131,0.33019
500.28152,0.29273
498.79173,0.25529
497.30194,0.18133
495.81216,0.21706
494.32237,0.22891
492.83258,0.24079
491.34279,0.12758
489.85300,0.18310
488.36321,0.23865
486.87343,0.22112
485.38364,0.20362
483.89385,0.15241
482.40406,0.06749
480.91427,0.10068
479.42448,0.13391
477.93469,0.07156
476.44491,0.15826
474.95512,0.15502
473.46533,0.15180
471.97554,0.14018
470.48575,0.08360
468.99596,0.08890
467.50618,0.12657
466.01639,0.16426
464.52660,0.02063
463.03681,0.06260
461.54702,0.07929
460.05723,0.09602
458.56745,0.19711
457.07766,0.26450
455.58787,0.18993
454.09808,0.11538
452.60829,0.17723
451.11850,0.25597
449.62871,0.22088
448.13893,0.18581
446.64914,0.28432
445.15935,0.24227
443.66956,0.39427
442.17977,0.41273
440.68998,0.43122
439.20020,0.44272
437.71041,0.64543
436.22062,0.64433
434.73083,0.64325
433.24104,0.69422
431.75125,0.76209
430.26146,0.76250
428.77168,0.76294
427.28189,0.92087
425.79210,0.99166
424.30231,1.10044
422.81252,1.20924
421.32273,1.42633
419.83295,1.53941
418.34316,1.45570
416.85337,1.37201
415.36358,0.91440
413.87379,0.94886
412.38400,0.90744
410.89422,0.86605
409.40443,0.95121
407.91464,0.99422
406.42485,1.04007
404.93506,0.98051
403.44527,0.92098
401.95548,0.97536
400.46570,0.91729
398.97591,0.85222
397.48612,0.78718
395.99633,0.80511
394.50654,0.83713
393.01675,0.81576
391.52697,0.79441
390.03718,0.83495
388.54739,0.79117
387.05760,0.81771
385.56781,0.84427
384.07802,0.78370
382.58824,0.77658
381.09845,0.69076
379.60866,0.60498
378.11887,0.63168
376.62908,0.43629
375.13929,0.48133
373.64950,0.52640
372.15972,0.30298
370.66993,0.30452
369.18014,0.36373
367.69035,0.42297
366.20056,0.32056
364.71077,0.35314
363.22099,0.34639
361.73120,0.33967
360.24141,0.13334
358.75162,0.12949
357.26183,0.13409
355.77204,0.13873
354.28225,0.20244
352.79247,0.07779
351.30268,0.10360
349.81289,0.12944
348.32310,0.12297
346.83331,0.09685
345.34352,0.13120
343.85374,0.16559
342.36395,0.08331
340.87416,0.12197
339.38437,0.07771
337.89458,0.03348
336.40479,0.05254
334.91501,0.12787
333.42522,0.10200
331.93543,0.07616
330.44564,0.03910
328.95585,0.02456
327.46606,0.02270
325.97627,0.02087
324.48649,0.10825
322.99670,0.20127
321.50691,0.14249
320.01712,0.08374
318.52733,0.06719
317.03754,0.04786
315.54776,0.05527
314.05797,0.06271
312.56818,0.02941
311.07839,0.10017
309.58860,0.06129
308.09881,0.02245
306.60902,0.00613
305.11924,0.04280
303.62945,0.06966
302.13966,0.09654
300.64987,0.01520
299.16008,0.00613
