1778.52000,0.06703
1777.03021,0.04752
1775.54042,0.02338
1774.05063,0.06225
1772.56085,0.04049
1771.07106,0.03276
1769.58127,0.02506
1768.09148,0.06404
1766.60169,0.03072
1765.11190,0.01610
1763.62212,0.00150
1762.13233,0.03592
1760.64254,0.00738
1759.15275,0.06519
1757.66296,0.03437
1756.17317,0.03390
1754.68339,0.03346
1753.19360,0.06338
1751.70381,0.00467
1750.21402,0.05710
1748.72423,0.08856
1747.23444,0.05005
1745.74465,0.03024
1744.25487,0.02679
1742.76508,0.05369
1741.27529,0.10162
1739.78550,0.03058
1738.29571,0.07389
1736.80592,0.08924
1735.31614,0.07894
1733.82635,0.04068
1732.33656,0.11210
1730.84677,0.04356
1729.35698,0.04737
1727.86719,0.09087
1726.37740,0.07607
1724.88762,0.02863
1723.39783,0.03022
1721.90804,0.00150
1720.41825,0.07950
1718.92846,0.03621
1717.43867,0.05594
1715.94889,0.03370
1714.45910,0.07915
1712.96931,0.08962
1711.47952,0.07680
1709.98973,0.07333
1708.49994,0.06989
1707.01016,0.07114
1705.52037,0.07242
1704.03058,0.13672
1702.54079,0.03072
1701.05100,0.06241
1699.56121,0.16879
1698.07142,0.09787
1696.58164,0.05498
1695.09185,0.12644
1693.60206,0.07894
1692.11227,0.10379
1690.62248,0.11467
1689.13269,0.04624
1687.64291,0.09684
1686.15312,0.17313
1684.66333,0.05812
1683.17354,0.08313
1681.68375,0.12450
1680.19396,0.08890
1678.70417,0.15833
1677.21439,0.12045
1675.72460,0.06627
1674.23481,0.07510
1672.74502,0.13763
1671.25523,0.10453
1669.76544,0.08545
1668.27566,0.15039
1666.78587,0.07770
1665.29608,0.05404
1663.80629,0.07473
1662.31650,0.14445
1660.82671,0.09287
1659.33693,0.11364
1657.84714,0.13444
1656.35735,0.09460
1654.86756,0.12712
1653.37777,0.05234
1651.88798,0.10824
1650.39819,0.07318
1648.90841,0.15480
1647.41862,0.08013
1645.92883,0.08364
1644.43904,0.08719
1642.94925,0.04759
1641.45946,0.12934
1639.96968,0.10614
1638.47989,0.11795
1636.99010,0.11346
1635.50031,0.12299
1634.01052,0.11856
1632.52073,0.07682
1631.03094,0.08410
1629.54116,0.12173
1628.05137,0.14773
1626.56158,0.13643
1625.07179,0.09016
1623.58200,0.10457
1622.09221,0.09568
1620.60243,0.05649
1619.11264,0.11298
1617.62285,0.09251
1616.13306,0.12105
1614.64327,0.10296
1613.15348,0.08723
1611.66370,0.08553
1610.17391,0.10485
1608.68412,0.07521
1607.19433,0.13658
1605.70454,0.14431
1604.21475,0.15091
1602.72496,0.15753
1601.23518,0.05803
1599.74539,0.07754
1598.25560,0.08074
1596.76581,0.07464
1595.27602,0.12456
1593.78623,0.07651
1592.29645,0.10315
1590.80666,0.00150
1589.31687,0.08865
1587.82708,0.12916
1586.33729,0.08337
1584.84750,0.18926
1583.35771,0.08053
1581.86793,0.11881
1580.37814,0.09179
1578.88835,0.05547
1577.39856,0.07517
1575.90877,0.08790
1574.41898,0.01433
1572.92920,0.09477
1571.43941,0.07258
1569.94962,0.06208
1568.45983,0.05161
1566.97004,0.00150
1565.48025,0.08376
1563.99047,0.04940
1562.50068,0.01739
1561.01089,0.07640
1559.52110,0.07711
1558.03131,0.10584
1556.54152,0.10194
1555.05173,0.08407
1553.56195,0.06155
1552.07216,0.16972
1550.58237,0.06793
1549.09258,0.11316
1547.60279,0.13042
1546.11300,0.28535
1544.62322,0.22567
1543.13343,0.22901
1541.64364,0.11338
1540.15385,0.09578
1538.66406,0.07820
1537.17427,0.02564
1535.68448,0.03145
1534.19470,0.03495
1532.70491,0.05247
1531.21512,0.11668
1529.72533,0.08293
1528.23554,0.05387
1526.74575,0.05051
1525.25597,0.12649
1523.76618,0.04385
1522.27639,0.06156
1520.78660,0.03497
1519.29681,0.05040
1517.80702,0.08686
1516.31724,0.02068
1514.82745,0.08285
1513.33766,0.04240
1511.84787,0.00197
1510.35808,0.08055
1508.86829,0.09850
1507.37850,0.05816
1505.88872,0.00150
1504.39893,0.05976
1502.90914,0.01305
1501.41935,0.02937
1499.92956,0.07371
1498.43977,0.00841
1496.94999,0.04114
1495.46020,0.09256
1493.97041,0.05301
1492.48062,0.11615
1490.99083,0.08599
1489.50104,0.12118
1488.01125,0.16107
1486.52147,0.20099
1485.03168,0.22226
1483.54189,0.30422
1482.05210,0.23689
1480.56231,0.28858
1479.07252,0.26797
1477.58274,0.28471
1476.09295,0.27815
1474.60316,0.31361
1473.11337,0.25811
1471.62358,0.29129
1470.13379,0.40382
1468.64401,0.27840
1467.15422,0.29300
1465.66443,0.27963
1464.17464,0.26628
1462.68485,0.25529
1461.19506,0.18834
1459.70527,0.18440
1458.21549,0.14316
1456.72570,0.15095
1455.23591,0.15176
1453.74612,0.12694
1452.25633,0.09047
1450.76654,0.01437
1449.27676,0.11095
1447.78697,0.10023
1446.29718,0.07787
1444.80739,0.13020
1443.31760,0.18255
1441.82781,0.12061
1440.33802,0.15202
1438.84824,0.09247
1437.35845,0.11460
1435.86866,0.05043
1434.37887,0.09128
1432.88908,0.00150
1431.39929,0.06052
1429.90951,0.11724
1428.41972,0.09932
1426.92993,0.15609
1425.44014,0.18723
1423.95035,0.15772
1422.46056,0.12825
1420.97078,0.13846
1419.48099,0.23736
1417.99120,0.22897
1416.50141,0.21826
1415.01162,0.20992
1413.52183,0.18294
1412.03204,0.20964
1410.54226,0.26671
1409.05247,0.19081
1407.56268,0.22226
1406.07289,0.24908
1404.58310,0.20943
1403.09331,0.16980
1401.60353,0.20836
1400.11374,0.27028
1398.62395,0.25989
1397.13416,0.34053
1395.64437,0.34187
1394.15458,0.29423
1392.66479,0.27229
1391.17501,0.23638
1389.68522,0.24716
1388.19543,0.24863
1386.70564,0.25012
1385.21585,0.25165
1383.72606,0.31153
1382.23628,0.28511
1380.74649,0.29371
1379.25670,0.26268
1377.76691,0.29933
1376.27712,0.30335
1374.78733,0.29573
1373.29755,0.46545
1371.80776,0.56987
1370.31797,0.62533
1368.82818,0.70880
1367.33839,0.79231
1365.84860,0.85484
1364.35881,1.04106
1362.86903,0.97765
1361.37924,1.19892
1359.88945,1.17990
1358.39966,1.04892
1356.90987,1.06962
1355.42008,0.92702
1353.93030,0.91977
1352.44051,0.95805
1350.95072,0.99635
1349.46093,0.80720
1347.97114,0.70907
1346.48135,0.48731
1344.99156,0.42189
1343.50178,0.38450
1342.01199,0.31448
1340.52220,0.31914
1339.03241,0.23983
1337.54262,0.32853
1336.05283,0.28311
1334.56305,0.23771
1333.07326,0.19585
1331.58347,0.23566
1330.09368,0.22651
1328.60389,0.15206
1327.11410,0.11963
1325.62432,0.15255
1324.13453,0.09684
1322.64474,0.00150
1321.15495,0.12527
1319.66516,0.13941
1318.17537,0.15358
1316.68558,0.11645
1315.19580,0.08634
1313.70601,0.02826
1312.21622,0.16385
1310.72643,0.07317
1309.23664,0.05950
1307.74685,0.08318
1306.25707,0.16989
1304.76728,0.15280
1303.27749,0.13574
1301.78770,0.13620
1300.29791,0.06670
1298.80812,0.10454
1297.31834,0.08176
1295.82855,0.14299
1294.33876,0.11092
1292.84897,0.10221
1291.35918,0.10753
1289.86939,0.10937
1288.37960,0.11124
1286.88982,0.16330
1285.40003,0.06140
1283.91024,0.02952
1282.42045,0.00000
1280.93066,0.07914
1279.44087,0.08364
1277.95109,0.13484
1276.46130,0.09973
1274.97151,0.05065
1273.48172,0.00160
1271.99193,0.08083
1270.50214,0.12043
1269.01235,0.07839
1267.52257,0.08537
1266.03278,0.10171
1264.54299,0.17175
1263.05320,0.10648
1261.56341,0.12757
1260.07362,0.14869
1258.58384,0.14883
1257.09405,0.16767
1255.60426,0.10021
1254.11447,0.12143
1252.62468,0.11468
1251.13489,0.19195
1249.64511,0.09427
1248.15532,0.06660
1246.66553,0.05646
1245.17574,0.04635
1243.68595,0.03276
1242.19616,0.07986
1240.70637,0.04067
1239.21659,0.06682
1237.72680,0.00668
1236.23701,0.03756
1234.74722,0.06613
1233.25743,0.07256
1231.76764,0.07902
1230.27786,0.09600
1228.78807,0.11302
1227.29828,0.11839
1225.80849,0.09579
1224.31870,0.06622
1222.82891,0.09734
1221.33912,0.06549
1219.84934,0.07683
1218.35955,0.08819
1216.86976,0.02376
1215.37997,0.12967
1213.89018,0.09329
1212.40039,0.06160
1210.91061,0.09526
1209.42082,0.08695
1207.93103,0.08451
1206.44124,0.08209
1204.95145,0.09486
1203.46166,0.11700
1201.97188,0.00150
1200.48209,0.04877
1198.99230,0.05874
1197.50251,0.00341
1196.01272,0.05076
1194.52293,0.05614
1193.03314,0.06155
1191.54336,0.02266
1190.05357,0.14011
1188.56378,0.08027
1187.07399,0.14879
1185.58420,0.04001
1184.09441,0.08757
1182.60463,0.10717
1181.11484,0.12679
1179.62505,0.03212
1178.13526,0.02846
1176.64547,0.00150
1175.15568,0.03250
1173.66589,0.08220
1172.17611,0.15292
1170.68632,0.11284
1169.19653,0.07279
1167.70674,0.06426
1166.21695,0.07909
1164.72716,0.08929
1163.23738,0.10650
1161.74759,0.08409
1160.25780,0.03370
1158.76801,0.03933
1157.27822,0.04499
1155.78843,0.11834
1154.29865,0.00973
1152.80886,0.15312
1151.31907,0.11689
1149.82928,0.07835
1148.33949,0.08184
1146.84970,0.09819
1145.35991,0.11456
1143.87013,0.09946
1142.38034,0.08672
1140.89055,0.09034
1139.40076,0.12899
1137.91097,0.12566
1136.42118,0.13870
1134.93140,0.14826
1133.44161,0.15784
1131.95182,0.11496
1130.46203,0.15143
1128.97224,0.11560
1127.48245,0.14980
1125.99266,0.23301
1124.50288,0.18793
1123.01309,0.19304
1121.52330,0.19817
1120.03351,0.21850
1118.54372,0.26452
1117.05393,0.22657
1115.56415,0.26331
1114.07436,0.31641
1112.58457,0.31470
1111.09478,0.31303
1109.60499,0.21455
1108.11520,0.39141
1106.62542,0.40498
1105.13563,0.40224
1103.64584,0.42986
1102.15605,0.56483
1100.66626,0.53884
1099.17647,0.51288
1097.68668,0.51728
1096.19690,0.55437
1094.70711,0.62648
1093.21732,0.60529
1091.72753,0.60746
1090.23774,0.69948
1088.74795,0.79153
1087.25817,0.69812
1085.76838,0.67473
1084.27859,0.79369
1082.78880,0.70037
1081.29901,0.82405
1079.80922,0.71911
1078.31943,0.75418
1076.82965,0.78928
1075.33986,0.74275
1073.85007,0.74057
1072.36028,0.74776
1070.87049,0.70831
1069.38070,0.75521
1067.89092,0.69131
1066.40113,0.62744
1064.91134,0.52510
1063.42155,0.60477
1061.93176,0.60048
1060.44197,0.44456
1058.95219,0.48931
1057.46240,0.43260
1055.97261,0.37592
1054.48282,0.43475
1052.99303,0.46328
1051.50324,0.35885
1050.01345,0.36410
1048.52367,0.31105
1047.03388,0.33619
1045.54409,0.36136
1044.05430,0.30372
1042.56451,0.24144
1041.07472,0.21653
1039.58494,0.19863
1038.09515,0.11544
1036.60536,0.12677
1035.11557,0.13812
1033.62578,0.16933
1032.13599,0.13524
1030.64620,0.25983
1029.15642,0.22346
1027.66663,0.21861
1026.17684,0.21379
1024.68705,0.21717
1023.19726,0.22990
1021.70747,0.30099
1020.21769,0.30444
1018.72790,0.43624
1017.23811,0.40475
1015.74832,0.37329
1014.25853,0.37918
1012.76874,0.40610
1011.27896,0.65236
1009.78917,0.68633
1008.29938,0.76466
1006.80959,0.79402
1005.31980,0.82341
1003.83001,0.85515
1002.34022,1.10624
1000.85044,1.17537
999.36065,1.39618
997.87086,1.52019
996.38107,1.64422
994.89128,1.70646
993.40149,1.80605
991.91171,1.82868
990.42192,1.91899
988.93213,1.83202
987.44234,1.87922
985.95255,1.92645
984.46276,1.96555
982.97297,2.00000
981.48319,1.90149
979.99340,1.84734
978.50361,1.80721
977.01382,1.76711
975.52403,1.87636
974.03424,1.81998
972.54446,1.60964
971.05467,1.68397
969.56488,1.50168
968.07509,1.54690
966.58530,1.59215
965.09551,1.42861
963.60573,1.34909
962.11594,1.43524
960.62615,1.26011
959.13636,1.23317
957.64657,1.20625
956.15678,1.18052
954.66699,0.97050
953.17721,0.95650
951.68742,0.94018
950.19763,0.97522
948.70784,1.01029
947.21805,0.84240
945.72826,0.80520
944.23848,0.89401
942.74869,0.89652
941.25890,0.80807
939.76911,0.79780
938.27932,0.78756
936.78953,0.77618
935.29974,0.83948
933.80996,0.89815
932.32017,0.88452
930.83038,0.89074
929.34059,0.89699
927.85080,0.88811
926.36101,0.89325
924.87123,0.93341
923.38144,1.04592
921.89165,0.97882
920.40186,0.91173
918.91207,1.07099
917.42228,1.03196
915.93250,1.13528
914.44271,1.19663
912.95292,1.20434
911.46313,1.21208
909.97334,1.25251
908.48355,1.35362
906.99376,1.49910
905.50398,1.54428
904.01419,1.61164
902.52440,1.67904
901.03461,1.69630
899.54482,1.76958
898.05503,1.66323
896.56525,1.68057
895.07546,1.63028
893.58567,1.58001
892.09588,1.53910
890.60609,1.41423
889.11630,1.42237
887.62651,1.46320
886.13673,1.46322
884.64694,1.46328
883.15715,1.44586
881.66736,1.24882
880.17757,1.17546
878.68778,1.11730
877.19800,1.05916
875.70821,1.05587
874.21842,0.96162
872.72863,0.96306
871.23884,0.78253
869.74905,0.78636
868.25927,0.79020
866.76948,0.75208
865.27969,0.65799
863.78990,0.51727
862.30011,0.50256
860.81032,0.52054
859.32053,0.53855
857.83075,0.43059
856.34096,0.41599
854.85117,0.35009
853.36138,0.35887
851.87159,0.30002
850.38180,0.24119
848.89202,0.26639
847.40223,0.26361
845.91244,0.16054
844.42265,0.16248
842.93286,0.16445
841.44307,0.12678
839.95329,0.11247
838.46350,0.03286
836.97371,0.08160
835.48392,0.09304
833.99413,0.10450
832.50434,0.16732
831.01455,0.09718
829.52477,0.05039
828.03498,0.08296
826.54519,0.09339
825.05540,0.10385
823.56561,0.10150
822.07582,0.07818
820.58604,0.04089
819.09625,0.04445
817.60646,0.04804
816.11667,0.00150
814.62688,0.00708
813.13709,0.14801
811.64730,0.04632
810.15752,0.06364
808.66773,0.08099
807.17794,0.00038
805.68815,0.00071
804.19836,0.05006
802.70857,0.07027
801.21879,0.09051
799.72900,0.07461
798.23921,0.16839
796.74942,0.15022
795.25963,0.15306
793.76984,0.15594
792.28006,0.24750
790.79027,0.16176
789.30048,0.24171
787.81069,0.35668
786.32090,0.33636
784.83111,0.31606
783.34132,0.28646
781.85154,0.33388
780.36175,0.24366
778.87196,0.25497
777.38217,0.26631
775.89238,0.40016
774.40259,0.43604
772.91281,0.34130
771.42302,0.37257
769.93323,0.40387
768.44344,0.50519
766.95365,0.44555
765.46386,0.41393
763.97407,0.34268
762.48429,0.32512
760.99450,0.30758
759.50471,0.25041
758.01492,0.24459
756.52513,0.22947
755.03534,0.19454
753.54556,0.15964
752.05577,0.14227
750.56598,0.09926
749.07619,0.09360
747.58640,0.08797
746.09661,0.08236
744.60683,0.06046
743.11704,0.05724
741.62725,0.08205
740.13746,0.07305
738.64767,0.06408
737.15788,0.01198
735.66809,0.11622
734.17831,0.06417
732.68852,0.05181
731.19873,0.03947
729.70894,0.00150
728.21915,0.13604
726.72936,0.10729
725.23958,0.02724
723.74979,0.03471
722.26000,0.04221
720.77021,0.07189
719.28042,0.06894
717.79063,0.13368
716.30084,0.09229
714.81106,0.05092
713.32127,0.05041
711.83148,0.03126
710.34169,0.10547
708.85190,0.09687
707.36211,0.08830
705.87233,0.08093
704.38254,0.03391
702.89275,0.11058
701.40296,0.08112
699.91317,0.05169
698.42338,0.14710
696.93360,0.24954
695.44381,0.25402
693.95402,0.27136
692.46423,0.28872
690.97444,0.10429
689.48465,0.08321
687.99486,0.00150
686.50508,0.05547
685.01529,0.10947
683.52550,0.09701
682.03571,0.12190
680.54592,0.10482
679.05613,0.06327
677.56635,0.02174
676.07656,0.12373
674.58677,0.07643
673.09698,0.02915
671.60719,0.05423
670.11740,0.07933
668.62761,0.09513
667.13783,0.07363
665.64804,0.06731
664.15825,0.06103
662.66846,0.06993
661.17867,0.01587
659.68888,0.00150
658.19910,0.02549
656.70931,0.04951
655.21952,0.05956
653.72973,0.12329
652.23994,0.14739
650.75015,0.14118
649.26037,0.13500
647.77058,0.09386
646.28079,0.20439
644.79100,0.18896
643.30121,0.16539
641.81142,0.14184
640.32163,0.12416
638.83185,0.08084
637.34206,0.05154
635.85227,0.08876
634.36248,0.12602
632.87269,0.10380
631.38290,0.06528
629.89312,0.01045
628.40333,0.03614
626.91354,0.06186
625.42375,0.02578
623.93396,0.08305
622.44417,0.11119
620.95438,0.13934
619.46460,0.16403
617.97481,0.17475
616.48502,0.11549
614.99523,0.13209
613.50544,0.14872
612.01565,0.15254
610.52587,0.14706
609.03608,0.23493
607.54629,0.20034
606.05650,0.16577
604.56671,0.18139
603.07692,0.15038
601.58714,0.14272
600.09735,0.13509
598.60756,0.00150
597.11777,0.12047
595.62798,0.07381
594.13819,0.09600
592.64840,0.11823
591.15862,0.10665
589.66883,0.20942
588.17904,0.24222
586.68925,0.23655
585.19946,0.23091
583.70967,0.35012
582.21989,0.25937
580.73010,0.26314
579.24031,0.26694
577.75052,0.21827
576.26073,0.24429
574.77094,0.44065
573.28115,0.43289
571.79137,0.42516
570.30158,0.44662
568.81179,0.51010
567.32200,0.51877
565.83221,0.52748
564.34242,0.59337
562.85264,0.60563
561.36285,0.69958
559.87306,0.72006
558.38327,0.74056
556.89348,0.83925
555.40369,0.83298
553.91391,0.87340
552.42412,0.91384
550.93433,0.88198
549.44454,0.89682
547.95475,0.87901
546.46496,0.94289
544.97517,1.00680
543.48539,0.87709
541.99560,1.09270
540.50581,1.07853
539.01602,1.06439
537.52623,1.15176
536.03644,1.11317
534.54666,1.07228
533.05687,1.08507
531.56708,1.09789
530.07729,1.03141
528.58750,1.10728
527.09771,1.05252
525.60792,0.99779
524.11814,0.97575
522.62835,0.82774
521.13856,0.80575
519.64877,0.81062
518.15898,0.81551
516.66919,0.70495
515.17941,0.79505
513.68962,0.76737
512.19983,0.73970
510.71004,0.56158
509.22025,0.48381
507.73046,0.47606
506.24068,0.48467
504.75089,0.49331
503.26110,0.46464
501.77131,0.38934
500.28152,0.44705
498.79173,0.50478
497.30194,0.37357
495.81216,0.33103
494.32237,0.29903
492.83258,0.26705
491.34279,0.29226
489.85300,0.25683
488.36321,0.29376
486.87343,0.27471
485.38364,0.25570
483.89385,0.17838
482.40406,0.23408
480.91427,0.27348
479.42448,0.31290
477.93469,0.17736
476.44491,0.13984
474.95512,0.10118
473.46533,0.06255
471.97554,0.21410
470.48575,0.17902
468.99596,0.22329
467.50618,0.21510
466.01639,0.20693
464.52660,0.20696
463.03681,0.17901
461.54702,0.20242
460.05723,0.22586
458.56745,0.17699
457.07766,0.28681
455.58787,0.20883
454.09808,0.13089
452.60829,0.22212
451.11850,0.37404
449.62871,0.38133
448.13893,0.38865
446.64914,0.41466
445.15935,0.42903
443.66956,0.49709
442.17977,0.50452
440.68998,0.51197
439.20020,0.56611
437.71041,0.57595
436.22062,0.61848
434.73083,0.66104
433.24104,0.78061
431.75125,0.80456
430.26146,0.78653
428.77168,0.76853
427.28189,0.83689
425.79210,1.00093
424.30231,1.08100
422.81252,1.16110
421.32273,1.46521
419.83295,1.47537
418.34316,1.43656
416.85337,1.39778
415.36358,1.10471
413.87379,1.03565
412.38400,0.99812
410.89422,0.96061
409.40443,0.97795
407.91464,1.18198
406.42485,1.24604
404.93506,1.16664
403.44527,1.08727
401.95548,0.98809
400.46570,0.93561
398.97591,0.97297
397.48612,1.01037
395.99633,1.10028
394.50654,1.07123
393.01675,1.00604
391.52697,0.94089
390.03718,0.95625
388.54739,0.94597
387.05760,0.93455
385.56781,0.92316
384.07802,0.81731
382.58824,0.80947
381.09845,0.83316
379.60866,0.85688
378.11887,0.70447
376.62908,0.66641
375.13929,0.62720
373.64950,0.58803
372.15972,0.50806
370.66993,0.46077
369.18014,0.49867
367.69035,0.53660
366.20056,0.39373
364.71077,0.39788
363.22099,0.36940
361.73120,0.34094
360.24141,0.21918
358.75162,0.34709
357.26183,0.28255
355.77204,0.21803
354.28225,0.20370
352.79247,0.11241
351.30268,0.15880
349.81289,0.20521
348.32310,0.18166
346.83331,0.07647
345.34352,0.03897
343.85374,0.00150
342.36395,0.12304
340.87416,0.07661
339.38437,0.09088
337.89458,0.10517
336.40479,0.22448
334.91501,0.06617
333.42522,0.06304
331.93543,0.05994
330.44564,0.12570
328.95585,0.06549
327.46606,0.07997
325.97627,0.09447
324.48649,0.09268
322.99670,0.11657
321.50691,0.09499
320.01712,0.07344
318.52733,0.02742
317.03754,0.08874
315.54776,0.04511
314.05797,0.00150
312.56818,0.07604
311.07839,0.18094
309.58860,0.14471
308.09881,0.10850
306.60902,0.11782
305.11924,0.12017
303.62945,0.08171
302.13966,0.04328
300.64987,0.00371
299.16008,0.00150
