1778.52000,0.04871
1777.03021,0.04489
1775.54042,0.09469
1774.05063,0.03733
1772.56085,0.12949
1771.07106,0.03271
1769.58127,0.10517
1768.09148,0.10151
1766.60169,0.10634
1765.11190,0.09146
1763.62212,0.00045
1762.13233,0.14074
1760.64254,0.07799
1759.15275,0.12808
1757.66296,0.04282
1756.17317,0.05066
1754.68339,0.05570
1753.19360,0.13974
1751.70381,0.06023
1750.21402,0.05125
1748.72423,0.00000
1747.23444,0.09543
1745.74465,0.05833
1744.25487,0.03254
1742.76508,0.09138
1741.27529,0.00360
1739.78550,0.00045
1738.29571,0.01887
1736.80592,0.08526
1735.31614,0.04451
1733.82635,0.08839
1732.33656,0.07025
1730.84677,0.00984
1729.35698,0.02842
1727.86719,0.04139
1726.37740,0.02336
1724.88762,0.04484
1723.39783,0.16788
1721.90804,0.00045
1720.41825,0.03590
1718.92846,0.04034
1717.43867,0.07020
1715.94889,0.02675
1714.45910,0.14973
1712.96931,0.08942
1711.47952,0.02632
1709.98973,0.03656
1708.49994,0.05248
1707.01016,0.05855
1705.52037,0.06465
1704.03058,0.10603
1702.54079,0.11359
1701.05100,0.13810
1699.56121,0.15982
1698.07142,0.09695
1696.58164,0.08488
1695.09185,0.05309
1693.60206,0.08338
1692.11227,0.07139
1690.62248,0.09609
1689.13269,0.07569
1687.64291,0.05249
1686.15312,0.09984
1684.66333,0.05695
1683.17354,0.11563
1681.68375,0.12639
1680.19396,0.06102
1678.70417,0.10850
1677.21439,0.06575
1675.72460,0.09636
1674.23481,0.08187
1672.74502,0.07022
1671.25523,0.08117
1669.76544,0.06676
1668.27566,0.10314
1666.78587,0.14519
1665.29608,0.08574
1663.80629,0.08554
1662.31650,0.14459
1660.82671,0.09931
1659.33693,0.12175
1657.84714,0.07653
1656.35735,0.06237
1654.86756,0.08207
1653.37777,0.07359
1651.88798,0.07361
1650.39819,0.07083
1648.90841,0.10473
1647.41862,0.01458
1645.92883,0.04995
1644.43904,0.08535
1642.94925,0.04604
1641.45946,0.10265
1639.96968,0.06903
1638.47989,0.07211
1636.99010,0.15136
1635.50031,0.07270
1634.01052,0.08713
1632.52073,0.11569
1631.03094,0.00045
1629.54116,0.12158
1628.05137,0.16094
1626.56158,0.15238
1625.07179,0.04515
1623.58200,0.06767
1622.09221,0.07329
1620.60243,0.05921
1619.11264,0.06489
1617.62285,0.02829
1616.13306,0.05941
1614.64327,0.03696
1613.15348,0.12736
1611.66370,0.03164
1610.17391,0.09389
1608.68412,0.10258
1607.19433,0.07181
1605.70454,0.07209
1604.21475,0.10483
1602.72496,0.13760
1601.23518,0.09284
1599.74539,0.04528
1598.25560,0.09364
1596.76581,0.04896
1595.27602,0.11994
1593.78623,0.08095
1592.29645,0.12095
1590.80666,0.05100
1589.31687,0.03747
1587.82708,0.04653
1586.33729,0.05281
1584.84750,0.12961
1583.35771,0.12747
1581.86793,0.05203
1580.37814,0.14302
1578.88835,0.04225
1577.39856,0.08535
1575.90877,0.06078
1574.41898,0.06163
1572.92920,0.00045
1571.43941,0.00487
1569.94962,0.01779
1568.45983,0.03072
1566.97004,0.06343
1565.48025,0.01156
1563.99047,0.13174
1562.50068,0.08274
1561.01089,0.08453
1559.52110,0.02994
1558.03131,0.17280
1556.54152,0.05058
1555.05173,0.10888
1553.56195,0.10517
1552.07216,0.09584
1550.58237,0.02167
1549.09258,0.05752
1547.60279,0.22595
1546.11300,0.24775
1544.62322,0.30060
1543.13343,0.25759
1541.64364,0.11589
1540.15385,0.08844
1538.66406,0.06102
1537.17427,0.13093
1535.68448,0.03729
1534.19470,0.10161
1532.70491,0.14621
1531.21512,0.09213
1529.72533,0.04654
1528.23554,0.04046
1526.74575,0.11055
1525.25597,0.09607
1523.76618,0.10981
1522.27639,0.07845
1520.78660,0.10353
1519.29681,0.05812
1517.80702,0.12274
1516.31724,0.03790
1514.82745,0.04335
1513.33766,0.07420
1511.84787,0.10508
1510.35808,0.06547
1508.86829,0.08230
1507.37850,0.00045
1505.88872,0.06224
1504.39893,0.11841
1502.90914,0.08154
1501.41935,0.06443
1499.92956,0.09530
1498.43977,0.10364
1496.94999,0.10918
1495.46020,0.02732
1493.97041,0.11188
1492.48062,0.12596
1490.99083,0.12597
1489.50104,0.23599
1488.01125,0.23182
1486.52147,0.22768
1485.03168,0.08114
1483.54189,0.16589
1482.05210,0.20272
1480.56231,0.14369
1479.07252,0.30466
1477.58274,0.28235
1476.09295,0.34467
1474.60316,0.27729
1473.11337,0.30018
1471.62358,0.30899
1470.13379,0.29528
1468.64401,0.30414
1467.15422,0.30176
1465.66443,0.25710
1464.17464,0.21246
1462.68485,0.22990
1461.19506,0.22198
1459.70527,0.17461
1458.21549,0.10469
1456.72570,0.11660
1455.23591,0.08623
1453.74612,0.16023
1452.25633,0.12991
1450.76654,0.06014
1449.27676,0.14832
1447.78697,0.12937
1446.29718,0.14146
1444.80739,0.12819
1443.31760,0.11496
1441.82781,0.11021
1440.33802,0.13651
1438.84824,0.13181
1437.35845,0.12150
1435.86866,0.07738
1434.37887,0.01072
1432.88908,0.01741
1431.39929,0.14822
1429.90951,0.07318
1428.41972,0.12508
1426.92993,0.19957
1425.44014,0.06820
1423.95035,0.12158
1422.46056,0.17500
1420.97078,0.12268
1419.48099,0.23397
1417.99120,0.19016
1416.50141,0.16049
1415.01162,0.10546
1413.52183,0.17454
1412.03204,0.21263
1410.54226,0.21127
1409.05247,0.22967
1407.56268,0.20580
1406.07289,0.25246
1404.58310,0.26107
1403.09331,0.26971
1401.60353,0.38696
1400.11374,0.26732
1398.62395,0.26053
1397.13416,0.24813
1395.64437,0.26395
1394.15458,0.32211
1392.66479,0.28158
1391.17501,0.25518
1389.68522,0.16394
1388.19543,0.27861
1386.70564,0.28895
1385.21585,0.29932
1383.72606,0.23639
1382.23628,0.24682
1380.74649,0.20650
1379.25670,0.27903
1377.76691,0.31773
1376.27712,0.30853
1374.78733,0.42908
1373.29755,0.50735
1371.80776,0.51796
1370.31797,0.72320
1368.82818,0.70848
1367.33839,0.69379
1365.84860,0.85963
1364.35881,0.98601
1362.86903,1.00242
1361.37924,1.18244
1359.88945,1.17634
1358.39966,1.16181
1356.90987,1.07116
1355.42008,1.03695
1353.93030,1.16069
1352.44051,1.10961
1350.95072,1.05855
1349.46093,0.95675
1347.97114,0.79575
1346.48135,0.46839
1344.99156,0.48230
1343.50178,0.43984
1342.01199,0.36356
1340.52220,0.37191
1339.03241,0.26748
1337.54262,0.26743
1336.05283,0.25612
1334.56305,0.24484
1333.07326,0.21103
1331.58347,0.24493
1330.09368,0.25065
1328.60389,0.10974
1327.11410,0.20295
1325.62432,0.16926
1324.13453,0.14407
1322.64474,0.00045
1321.15495,0.12479
1319.66516,0.12083
1318.17537,0.11689
1316.68558,0.11722
1315.19580,0.08372
1313.70601,0.13768
1312.21622,0.07040
1310.72643,0.12441
1309.23664,0.09385
1307.74685,0.00972
1306.25707,0.08920
1304.76728,0.09679
1303.27749,0.10440
1301.78770,0.11910
1300.29791,0.05203
1298.80812,0.13728
1297.31834,0.14923
1295.82855,0.14147
1294.33876,0.05759
1292.84897,0.10628
1291.35918,0.05348
1289.86939,0.08813
1288.37960,0.12280
1286.88982,0.17443
1285.40003,0.15275
1283.91024,0.09444
1282.42045,0.02205
1280.93066,0.00045
1279.44087,0.04536
1277.95109,0.11568
1276.46130,0.05346
1274.97151,0.09281
1273.48172,0.13218
1271.99193,0.09826
1270.50214,0.02205
1269.01235,0.07561
1267.52257,0.06432
1266.03278,0.13203
1264.54299,0.11234
1263.05320,0.13780
1261.56341,0.12098
1260.07362,0.10419
1258.58384,0.15793
1257.09405,0.15812
1255.60426,0.11602
1254.11447,0.07678
1252.62468,0.09960
1251.13489,0.07169
1249.64511,0.10867
1248.15532,0.14850
1246.66553,0.15169
1245.17574,0.15491
1243.68595,0.05945
1242.19616,0.08246
1240.70637,0.06602
1239.21659,0.03268
1237.72680,0.01911
1236.23701,0.10428
1234.74722,0.12179
1233.25743,0.08856
1231.76764,0.05536
1230.27786,0.05602
1228.78807,0.12722
1227.29828,0.14768
1225.80849,0.08075
1224.31870,0.09280
1222.82891,0.00899
1221.33912,0.05212
1219.84934,0.04170
1218.35955,0.03130
1216.86976,0.03784
1215.37997,0.07826
1213.89018,0.13563
1212.40039,0.12252
1210.91061,0.10379
1209.42082,0.16124
1207.93103,0.11436
1206.44124,0.06751
1204.95145,0.07145
1203.46166,0.10081
1201.97188,0.00045
1200.48209,0.04711
1198.99230,0.05149
1197.50251,0.03333
1196.01272,0.08007
1194.52293,0.07042
1193.03314,0.06081
1191.54336,0.00045
1190.05357,0.06101
1188.56378,0.05673
1187.07399,0.06093
1185.58420,0.11029
1184.09441,0.07788
1182.60463,0.06666
1181.11484,0.05546
1179.62505,0.03159
1178.13526,0.08672
1176.64547,0.08830
1175.15568,0.08144
1173.66589,0.08024
1172.17611,0.04241
1170.68632,0.07370
1169.19653,0.10502
1167.70674,0.06163
1166.21695,0.04083
1164.72716,0.14697
1163.23738,0.11494
1161.74759,0.04063
1160.25780,0.07634
1158.76801,0.07118
1157.27822,0.06605
1155.78843,0.15261
1154.29865,0.10664
1152.80886,0.15941
1151.31907,0.22630
1149.82928,0.09862
1148.33949,0.21352
1146.84970,0.20857
1145.35991,0.20366
1143.87013,0.13249
1142.38034,0.08674
1140.89055,0.14536
1139.40076,0.12504
1137.91097,0.15833
1136.42118,0.05910
1134.93140,0.09526
1133.44161,0.13146
1131.95182,0.12819
1130.46203,0.20392
1128.97224,0.13303
1127.48245,0.13830
1125.99266,0.14361
1124.50288,0.27585
1123.01309,0.21211
1121.52330,0.14840
1120.03351,0.16509
1118.54372,0.22694
1117.05393,0.30291
1115.56415,0.19559
1114.07436,0.19829
1112.58457,0.25319
1111.09478,0.30812
1109.60499,0.29679
1108.11520,0.33062
1106.62542,0.32781
1105.13563,0.38144
1103.64584,0.39843
1102.15605,0.48313
1100.66626,0.47196
1099.17647,0.46083
1097.68668,0.49203
1096.19690,0.56273
1094.70711,0.62783
1093.21732,0.61398
1091.72753,0.52965
1090.23774,0.63431
1088.74795,0.73899
1087.25817,0.73653
1085.76838,0.84409
1084.27859,0.81630
1082.78880,0.74060
1081.29901,0.73824
1079.80922,0.77258
1078.31943,0.83374
1076.82965,0.89492
1075.33986,0.84473
1073.85007,0.71560
1072.36028,0.71059
1070.87049,0.70278
1069.38070,0.73731
1067.89092,0.70135
1066.40113,0.66543
1064.91134,0.60132
1063.42155,0.66698
1061.93176,0.60575
1060.44197,0.49378
1058.95219,0.46080
1057.46240,0.45183
1055.97261,0.44288
1054.48282,0.48614
1052.99303,0.31790
1051.50324,0.29634
1050.01345,0.37634
1048.52367,0.36329
1047.03388,0.33477
1045.54409,0.30626
1044.05430,0.25100
1042.56451,0.23524
1041.07472,0.20259
1039.58494,0.11355
1038.09515,0.19377
1036.60536,0.17953
1035.11557,0.16532
1033.62578,0.16382
1032.13599,0.17927
1030.64620,0.07630
1029.15642,0.14822
1027.66663,0.21311
1026.17684,0.27802
1024.68705,0.25977
1023.19726,0.26692
1021.70747,0.31641
1020.21769,0.27567
1018.72790,0.39853
1017.23811,0.36913
1015.74832,0.33976
1014.25853,0.42040
1012.76874,0.45594
1011.27896,0.55638
1009.78917,0.52429
1008.29938,0.64735
1006.80959,0.70133
1005.31980,0.75534
1003.83001,1.01667
1002.34022,1.13419
1000.85044,1.10508
999.36065,1.49058
997.87086,1.47704
996.38107,1.46352
994.89128,1.55298
993.40149,1.72988
991.91171,1.84759
990.42192,1.81021
988.93213,1.97874
987.44234,1.98936
985.95255,2.00000
984.46276,1.99939
982.97297,1.93394
981.48319,1.97851
979.99340,1.84261
978.50361,1.79134
977.01382,1.74009
975.52403,1.67478
974.03424,1.65179
972.54446,1.66832
971.05467,1.70461
969.56488,1.52659
968.07509,1.53051
966.58530,1.53445
965.09551,1.36215
963.60573,1.24346
962.11594,1.26018
960.62615,1.29102
959.13636,1.20344
957.64657,1.11588
956.15678,1.07911
954.66699,1.05366
953.17721,1.00002
951.68742,0.94078
950.19763,0.93796
948.70784,0.93518
947.21805,0.90139
945.72826,1.00301
944.23848,0.85929
942.74869,0.78046
941.25890,0.74114
939.76911,0.77095
938.27932,0.80079
936.78953,0.82360
935.29974,0.82951
933.80996,0.88340
932.32017,0.93731
930.83038,0.90382
929.34059,0.87036
927.85080,0.83975
926.36101,0.86274
924.87123,0.93371
923.38144,1.06676
921.89165,1.03625
920.40186,1.00577
918.91207,1.01198
917.42228,0.99001
915.93250,1.14293
914.44271,1.14640
912.95292,1.16682
911.46313,1.18727
909.97334,1.25004
908.48355,1.43694
906.99376,1.37850
905.50398,1.53442
904.01419,1.57334
902.52440,1.61227
901.03461,1.58496
899.54482,1.80586
898.05503,1.72784
896.56525,1.69497
895.07546,1.67622
893.58567,1.65751
892.09588,1.44422
890.60609,1.67092
889.11630,1.56485
887.62651,1.49266
886.13673,1.46420
884.64694,1.43578
883.15715,1.30444
881.66736,1.29157
880.17757,1.16029
878.68778,1.10799
877.19800,1.05573
875.70821,1.07118
874.21842,1.07819
872.72863,0.85961
871.23884,0.83283
869.74905,0.80326
868.25927,0.77372
866.76948,0.74702
865.27969,0.82471
863.78990,0.58936
862.30011,0.50070
860.81032,0.49950
859.32053,0.49832
857.83075,0.43512
856.34096,0.41143
854.85117,0.44136
853.36138,0.37542
851.87159,0.33066
850.38180,0.28593
848.89202,0.29340
847.40223,0.33192
845.91244,0.15612
844.42265,0.17918
842.93286,0.20227
841.44307,0.17885
839.95329,0.11880
838.46350,0.14620
836.97371,0.14260
835.48392,0.09813
833.99413,0.05370
832.50434,0.13761
831.01455,0.07771
829.52477,0.00656
828.03498,0.06236
826.54519,0.07728
825.05540,0.09223
823.56561,0.09733
822.07582,0.10529
820.58604,0.00045
819.09625,0.00416
817.60646,0.00790
816.11667,0.09345
814.62688,0.00135
813.13709,0.03055
811.64730,0.08516
810.15752,0.06506
808.66773,0.04498
807.17794,0.06583
805.68815,0.00491
804.19836,0.11324
802.70857,0.10173
801.21879,0.09025
799.72900,0.09431
798.23921,0.09839
796.74942,0.13917
795.25963,0.19266
793.76984,0.24618
792.28006,0.28986
790.79027,0.26024
789.30048,0.32653
787.81069,0.29978
786.32090,0.29985
784.83111,0.29994
783.34132,0.25071
781.85154,0.26355
780.36175,0.45410
778.87196,0.42751
777.38217,0.40094
775.89238,0.27570
774.40259,0.36764
772.91281,0.40884
771.42302,0.44584
769.93323,0.48287
768.44344,0.39160
766.95365,0.44702
765.46386,0.43195
763.97407,0.41127
762.48429,0.33844
760.99450,0.26564
759.50471,0.25349
758.01492,0.25830
756.52513,0.21519
755.03534,0.22147
753.54556,0.22777
752.05577,0.10295
750.56598,0.16430
749.07619,0.13542
747.58640,0.09670
746.09661,0.05801
744.60683,0.07716
743.11704,0.12455
741.62725,0.03094
740.13746,0.08401
738.64767,0.13712
737.15788,0.05769
735.66809,0.08546
734.17831,0.00045
732.68852,0.05582
731.19873,0.11121
729.70894,0.10459
728.21915,0.08107
726.72936,0.09141
725.23958,0.11307
723.74979,0.11501
722.26000,0.11699
720.77021,0.04847
719.28042,0.12946
717.79063,0.14561
716.30084,0.10115
714.81106,0.05673
713.32127,0.04757
711.83148,0.11460
710.34169,0.05191
708.85190,0.07809
707.36211,0.10430
705.87233,0.11785
704.38254,0.08066
702.89275,0.08579
701.40296,0.08391
699.91317,0.08205
698.42338,0.11265
696.93360,0.27583
695.44381,0.32341
693.95402,0.31319
692.46423,0.30301
690.97444,0.25760
689.48465,0.14170
687.99486,0.00045
686.50508,0.05291
685.01529,0.10539
683.52550,0.16917
682.03571,0.10326
680.54592,0.12479
679.05613,0.06880
677.56635,0.01283
676.07656,0.13880
674.58677,0.13789
673.09698,0.05239
671.60719,0.13331
670.11740,0.21426
668.62761,0.16269
667.13783,0.14216
665.64804,0.14845
664.15825,0.15478
662.66846,0.08639
661.17867,0.13365
659.68888,0.00045
658.19910,0.02415
656.70931,0.04788
655.21952,0.16612
653.72973,0.20542
652.23994,0.19115
650.75015,0.21076
649.26037,0.23040
647.77058,0.19365
646.28079,0.21898
644.79100,0.23869
643.30121,0.25138
641.81142,0.26410
640.32163,0.17954
638.83185,0.19655
637.34206,0.11205
635.85227,0.13756
634.36248,0.16310
632.87269,0.11816
631.38290,0.14940
629.89312,0.23989
628.40333,0.17247
626.91354,0.10508
625.42375,0.08002
623.93396,0.18754
622.44417,0.14279
620.95438,0.09806
619.46460,0.10977
617.97481,0.15253
616.48502,0.11071
614.99523,0.10981
613.50544,0.10893
612.01565,0.20256
610.52587,0.21443
609.03608,0.12762
607.54629,0.18185
606.05650,0.23610
604.56671,0.16065
603.07692,0.21214
601.58714,0.14802
600.09735,0.08393
598.60756,0.09884
597.11777,0.05736
595.62798,0.14565
594.13819,0.13666
592.64840,0.12770
591.15862,0.10608
589.66883,0.08448
588.17904,0.14470
586.68925,0.16123
585.19946,0.17778
583.70967,0.20988
582.21989,0.33789
580.73010,0.29953
579.24031,0.26120
577.75052,0.26237
576.26073,0.37075
574.77094,0.44249
573.28115,0.38312
571.79137,0.32376
570.30158,0.43789
568.81179,0.42231
567.32200,0.46316
565.83221,0.50403
564.34242,0.58160
562.85264,0.59715
561.36285,0.63811
559.87306,0.66781
558.38327,0.69754
556.89348,0.72448
555.40369,0.86989
553.91391,0.86445
552.42412,0.85904
550.93433,0.82967
549.44454,0.83700
547.95475,0.86128
546.46496,0.90956
544.97517,0.95786
543.48539,0.99914
541.99560,1.01506
540.50581,1.04934
539.01602,1.08365
537.52623,1.01505
536.03644,1.01416
534.54666,0.98509
533.05687,1.01387
531.56708,1.04267
530.07729,0.93189
528.58750,0.82961
527.09771,0.91771
525.60792,1.00585
524.11814,0.86134
522.62835,0.88325
521.13856,0.76418
519.64877,0.73820
518.15898,0.71225
516.66919,0.68068
515.17941,0.60684
513.68962,0.65570
512.19983,0.70460
510.71004,0.63647
509.22025,0.48659
507.73046,0.48621
506.24068,0.43791
504.75089,0.38963
503.26110,0.40061
501.77131,0.25086
500.28152,0.32394
498.79173,0.39705
497.30194,0.34891
495.81216,0.17389
494.32237,0.22874
492.83258,0.28362
491.34279,0.14816
489.85300,0.23553
488.36321,0.21012
486.87343,0.20306
485.38364,0.19603
483.89385,0.09173
482.40406,0.18769
480.91427,0.18779
479.42448,0.18792
477.93469,0.12320
476.44491,0.10928
474.95512,0.11090
473.46533,0.11255
471.97554,0.05922
470.48575,0.13002
468.99596,0.09649
467.50618,0.11517
466.01639,0.13387
464.52660,0.10606
463.03681,0.09238
461.54702,0.14924
460.05723,0.20612
458.56745,0.19816
457.07766,0.13664
455.58787,0.17809
454.09808,0.21957
452.60829,0.23146
451.11850,0.30543
449.62871,0.26802
448.13893,0.23063
446.64914,0.34980
445.15935,0.33081
443.66956,0.42747
442.17977,0.50723
440.68998,0.58703
439.20020,0.62454
437.71041,0.55491
436.22062,0.55864
434.73083,0.56239
433.24104,0.72128
431.75125,0.73355
430.26146,0.75289
428.77168,0.77227
427.28189,0.80436
425.79210,1.01415
424.30231,1.06039
422.81252,1.10666
421.32273,1.51396
419.83295,1.54900
418.34316,1.49805
416.85337,1.44713
415.36358,1.12690
413.87379,1.03796
412.38400,0.99417
410.89422,0.95040
409.40443,1.03358
407.91464,1.02653
406.42485,1.15489
404.93506,1.09572
403.44527,1.03658
401.95548,0.96195
400.46570,0.87889
398.97591,0.92418
397.48612,0.96950
395.99633,1.01625
394.50654,0.92766
393.01675,0.87152
391.52697,0.81541
390.03718,0.88766
388.54739,0.83302
387.05760,0.81224
385.56781,0.79150
384.07802,0.82436
382.58824,0.80649
381.09845,0.81544
379.60866,0.82441
378.11887,0.67125
376.62908,0.61118
375.13929,0.56101
373.64950,0.51086
372.15972,0.51574
370.66993,0.51500
369.18014,0.43956
367.69035,0.36414
366.20056,0.38887
364.71077,0.36568
363.22099,0.31854
361.73120,0.27143
360.24141,0.07910
358.75162,0.20267
357.26183,0.23320
355.77204,0.26376
354.28225,0.15614
352.79247,0.07958
351.30268,0.05522
349.81289,0.03089
348.32310,0.18567
346.83331,0.19383
345.34352,0.12445
343.85374,0.05510
342.36395,0.02667
340.87416,0.04057
339.38437,0.06155
337.89458,0.08255
336.40479,0.13038
334.91501,0.01748
333.42522,0.00895
331.93543,0.00045
330.44564,0.09432
328.95585,0.09515
327.46606,0.07627
325.97627,0.05741
324.48649,0.07524
322.99670,0.06208
321.50691,0.09970
320.01712,0.13736
318.52733,0.06787
317.03754,0.02097
315.54776,0.01640
314.05797,0.01185
312.56818,0.10943
311.07839,0.02372
309.58860,0.05085
308.09881,0.07800
306.60902,0.03185
305.11924,0.01111
303.62945,0.02001
302.13966,0.02503
300.64987,0.00045
299.16008,0.00045
