1778.52000,0.04827
1777.03021,0.00000
1775.54042,0.07028
1774.05063,0.06265
1772.56085,0.05667
1771.07106,0.05397
1769.58127,0.09675
1768.09148,0.10546
1766.60169,0.04114
1765.11190,0.04991
1763.62212,0.00025
1762.13233,0.03342
1760.64254,0.03253
1759.15275,0.05764
1757.66296,0.06816
1756.17317,0.03974
1754.68339,0.05194
1753.19360,0.06417
1751.70381,0.03746
1750.21402,0.01239
1748.72423,0.01820
1747.23444,0.01917
1745.74465,0.03640
1744.25487,0.02768
1742.76508,0.02548
1741.27529,0.03467
1739.78550,0.04389
1738.29571,0.02066
1736.80592,0.05753
1735.31614,0.05384
1733.82635,0.02095
1732.33656,0.08875
1730.84677,0.05592
1729.35698,0.02798
1727.86719,0.06988
1726.37740,0.04524
1724.88762,0.05148
1723.39783,0.04637
1721.90804,0.01207
1720.41825,0.03949
1718.92846,0.04584
1717.43867,0.00025
1715.94889,0.03000
1714.45910,0.04841
1712.96931,0.06035
1711.47952,0.02686
1709.98973,0.06321
1708.49994,0.02327
1707.01016,0.04425
1705.52037,0.06525
1704.03058,0.06274
1702.54079,0.03753
1701.05100,0.06754
1699.56121,0.06673
1698.07142,0.05946
1696.58164,0.00025
1695.09185,0.05471
1693.60206,0.07023
1692.11227,0.01272
1690.62248,0.06401
1689.13269,0.05363
1687.64291,0.05302
1686.15312,0.08329
1684.66333,0.07461
1683.17354,0.07408
1681.68375,0.05572
1680.19396,0.08122
1678.70417,0.12623
1677.21439,0.03976
1675.72460,0.03936
1674.23481,0.02925
1672.74502,0.04027
1671.25523,0.04969
1669.76544,0.06889
1668.27566,0.08973
1666.78587,0.06514
1665.29608,0.12500
1663.80629,0.11182
1662.31650,0.03536
1660.82671,0.14401
1659.33693,0.07896
1657.84714,0.03829
1656.35735,0.07883
1654.86756,0.07555
1653.37777,0.06744
1651.88798,0.09994
1650.39819,0.06102
1648.90841,0.08221
1647.41862,0.07745
1645.92883,0.08489
1644.43904,0.09235
1642.94925,0.07143
1641.45946,0.07489
1639.96968,0.06864
1638.47989,0.07378
1636.99010,0.08544
1635.50031,0.07601
1634.01052,0.09422
1632.52073,0.05887
1631.03094,0.11447
1629.54116,0.07431
1628.05137,0.11048
1626.56158,0.10122
1625.07179,0.08711
1623.58200,0.07141
1622.09221,0.08333
1620.60243,0.08067
1619.11264,0.06829
1617.62285,0.11601
1616.13306,0.08908
1614.64327,0.05729
1613.15348,0.09860
1611.66370,0.07012
1610.17391,0.08875
1608.68412,0.00025
1607.19433,0.07743
1605.70454,0.07020
1604.21475,0.06544
1602.72496,0.06071
1601.23518,0.04707
1599.74539,0.09191
1598.25560,0.07994
1596.76581,0.03878
1595.27602,0.04636
1593.78623,0.08318
1592.29645,0.07458
1590.80666,0.07736
1589.31687,0.03471
1587.82708,0.04079
1586.33729,0.03067
1584.84750,0.09688
1583.35771,0.01536
1581.86793,0.07676
1580.37814,0.04401
1578.88835,0.08922
1577.39856,0.00456
1575.90877,0.01248
1574.41898,0.06589
1572.92920,0.03977
1571.43941,0.03640
1569.94962,0.04524
1568.45983,0.05410
1566.97004,0.02159
1565.48025,0.02645
1563.99047,0.03458
1562.50068,0.06872
1561.01089,0.04281
1559.52110,0.02342
1558.03131,0.06900
1556.54152,0.03829
1555.05173,0.01898
1553.56195,0.02568
1552.07216,0.06812
1550.58237,0.07974
1549.09258,0.05728
1547.60279,0.08357
1546.11300,0.11962
1544.62322,0.10537
1543.13343,0.14147
1541.64364,0.08181
1540.15385,0.05465
1538.66406,0.02751
1537.17427,0.09295
1535.68448,0.06424
1534.19470,0.02582
1532.70491,0.00853
1531.21512,0.03023
1529.72533,0.07469
1528.23554,0.02177
1526.74575,0.05816
1525.25597,0.05237
1523.76618,0.05310
1522.27639,0.06198
1520.78660,0.07413
1519.29681,0.00025
1517.80702,0.07670
1516.31724,0.05413
1514.82745,0.05920
1513.33766,0.06510
1511.84787,0.07103
1510.35808,0.09565
1508.86829,0.05211
1507.37850,0.02159
1505.88872,0.01382
1504.39893,0.03531
1502.90914,0.03084
1501.41935,0.01666
1499.92956,0.06420
1498.43977,0.04682
1496.94999,0.00025
1495.46020,0.07709
1493.97041,0.05491
1492.48062,0.11231
1490.99083,0.10480
1489.50104,0.08595
1488.01125,0.10366
1486.52147,0.12139
1485.03168,0.14158
1483.54189,0.19915
1482.05210,0.14796
1480.56231,0.18284
1479.07252,0.21451
1477.58274,0.25595
1476.09295,0.26980
1474.60316,0.28856
1473.11337,0.24890
1471.62358,0.21250
1470.13379,0.19887
1468.64401,0.22585
1467.15422,0.30968
1465.66443,0.26041
1464.17464,0.21116
1462.68485,0.20253
1461.19506,0.17768
1459.70527,0.12040
1458.21549,0.14107
1456.72570,0.10657
1455.23591,0.08508
1453.74612,0.10745
1452.25633,0.10712
1450.76654,0.10033
1449.27676,0.03186
1447.78697,0.05434
1446.29718,0.06224
1444.80739,0.06854
1443.31760,0.07486
1441.82781,0.04063
1440.33802,0.07136
1438.84824,0.06153
1437.35845,0.07608
1435.86866,0.05656
1434.37887,0.06954
1432.88908,0.07442
1431.39929,0.04362
1429.90951,0.00472
1428.41972,0.10224
1426.92993,0.07151
1425.44014,0.12849
1423.95035,0.10674
1422.46056,0.08503
1420.97078,0.09500
1419.48099,0.18780
1417.99120,0.15886
1416.50141,0.12994
1415.01162,0.14164
1413.52183,0.10791
1412.03204,0.16999
1410.54226,0.16878
1409.05247,0.17572
1407.56268,0.14209
1406.07289,0.16532
1404.58310,0.17558
1403.09331,0.18587
1401.60353,0.19619
1400.11374,0.20653
1398.62395,0.24775
1397.13416,0.25327
1395.64437,0.24746
1394.15458,0.19621
1392.66479,0.23916
1391.17501,0.31298
1389.68522,0.20498
1388.19543,0.21067
1386.70564,0.22774
1385.21585,0.24484
1383.72606,0.21489
1382.23628,0.20769
1380.74649,0.21026
1379.25670,0.24858
1377.76691,0.25445
1376.27712,0.24898
1374.78733,0.33608
1373.29755,0.39561
1371.80776,0.51524
1370.31797,0.60729
1368.82818,0.69856
1367.33839,0.78986
1365.84860,0.79756
1364.35881,0.93843
1362.86903,0.98191
1361.37924,1.07575
1359.88945,1.15175
1358.39966,1.05730
1356.90987,0.98723
1355.42008,0.84250
1353.93030,0.87965
1352.44051,0.86567
1350.95072,0.85172
1349.46093,0.75906
1347.97114,0.56088
1346.48135,0.41794
1344.99156,0.37568
1343.50178,0.33995
1342.01199,0.24416
1340.52220,0.27668
1339.03241,0.20530
1337.54262,0.21026
1336.05283,0.21282
1334.56305,0.21540
1333.07326,0.14738
1331.58347,0.17843
1330.09368,0.14943
1328.60389,0.12532
1327.11410,0.08663
1325.62432,0.06258
1324.13453,0.07590
1322.64474,0.05515
1321.15495,0.05391
1319.66516,0.03403
1318.17537,0.01417
1316.68558,0.09581
1315.19580,0.04760
1313.70601,0.02538
1312.21622,0.05190
1310.72643,0.08657
1309.23664,0.01897
1307.74685,0.02447
1306.25707,0.03810
1304.76728,0.05177
1303.27749,0.06546
1301.78770,0.04833
1300.29791,0.03447
1298.80812,0.08721
1297.31834,0.07828
1295.82855,0.01417
1294.33876,0.04750
1292.84897,0.03053
1291.35918,0.05417
1289.86939,0.08353
1288.37960,0.11291
1286.88982,0.00025
1285.40003,0.00985
1283.91024,0.01299
1282.42045,0.00642
1280.93066,0.00798
1279.44087,0.06640
1277.95109,0.06640
1276.46130,0.05181
1274.97151,0.03400
1273.48172,0.01622
1271.99193,0.04392
1270.50214,0.05704
1269.01235,0.05882
1267.52257,0.09310
1266.03278,0.10305
1264.54299,0.04158
1263.05320,0.02723
1261.56341,0.05269
1260.07362,0.07817
1258.58384,0.08176
1257.09405,0.09511
1255.60426,0.03543
1254.11447,0.08944
1252.62468,0.10125
1251.13489,0.07250
1249.64511,0.06001
1248.15532,0.05242
1246.66553,0.06028
1245.17574,0.06816
1243.68595,0.05741
1242.19616,0.04343
1240.70637,0.00025
1239.21659,0.01443
1237.72680,0.01889
1236.23701,0.07859
1234.74722,0.00193
1233.25743,0.02105
1231.76764,0.04021
1230.27786,0.05939
1228.78807,0.03801
1227.29828,0.06374
1225.80849,0.04241
1224.31870,0.08443
1222.82891,0.00795
1221.33912,0.02566
1219.84934,0.01418
1218.35955,0.00273
1216.86976,0.04488
1215.37997,0.03185
1213.89018,0.05782
1212.40039,0.04160
1210.91061,0.02054
1209.42082,0.03847
1207.93103,0.03126
1206.44124,0.02408
1204.95145,0.01124
1203.46166,0.02278
1201.97188,0.00025
1200.48209,0.03622
1198.99230,0.03162
1197.50251,0.04004
1196.01272,0.06797
1194.52293,0.04884
1193.03314,0.02973
1191.54336,0.02202
1190.05357,0.02083
1188.56378,0.03265
1187.07399,0.01041
1185.58420,0.03365
1184.09441,0.00010
1182.60463,0.03070
1181.11484,0.06133
1179.62505,0.00025
1178.13526,0.05950
1176.64547,0.04896
1175.15568,0.07417
1173.66589,0.05069
1172.17611,0.06783
1170.68632,0.05415
1169.19653,0.04050
1167.70674,0.06259
1166.21695,0.03600
1164.72716,0.05977
1163.23738,0.08843
1161.74759,0.03270
1160.25780,0.05817
1158.76801,0.06012
1157.27822,0.06211
1155.78843,0.06818
1154.29865,0.07427
1152.80886,0.07227
1151.31907,0.08004
1149.82928,0.02939
1148.33949,0.12002
1146.84970,0.08322
1145.35991,0.04645
1143.87013,0.12904
1142.38034,0.14996
1140.89055,0.09784
1139.40076,0.09933
1137.91097,0.15118
1136.42118,0.10564
1134.93140,0.09990
1133.44161,0.09419
1131.95182,0.13640
1130.46203,0.13967
1128.97224,0.08939
1127.48245,0.18689
1125.99266,0.10581
1124.50288,0.18225
1123.01309,0.18078
1121.52330,0.17934
1120.03351,0.11299
1118.54372,0.26909
1117.05393,0.17194
1115.56415,0.22581
1114.07436,0.25048
1112.58457,0.25813
1111.09478,0.26580
1109.60499,0.26945
1108.11520,0.30721
1106.62542,0.36774
1105.13563,0.44615
1103.64584,0.46613
1102.15605,0.48777
1100.66626,0.47290
1099.17647,0.45806
1097.68668,0.50737
1096.19690,0.52912
1094.70711,0.55413
1093.21732,0.63113
1091.72753,0.62860
1090.23774,0.65451
1088.74795,0.68044
1087.25817,0.69098
1085.76838,0.71777
1084.27859,0.63582
1082.78880,0.72761
1081.29901,0.74637
1079.80922,0.77815
1078.31943,0.74582
1076.82965,0.71352
1075.33986,0.72427
1073.85007,0.78537
1072.36028,0.66141
1070.87049,0.69984
1069.38070,0.60516
1067.89092,0.66719
1066.40113,0.72924
1064.91134,0.60704
1063.42155,0.60988
1061.93176,0.56566
1060.44197,0.52634
1058.95219,0.43185
1057.46240,0.45672
1055.97261,0.48161
1054.48282,0.36122
1052.99303,0.39185
1051.50324,0.31859
1050.01345,0.34278
1048.52367,0.34751
1047.03388,0.31168
1045.54409,0.27588
1044.05430,0.27744
1042.56451,0.26117
1041.07472,0.17187
1039.58494,0.20273
1038.09515,0.17518
1036.60536,0.17607
1035.11557,0.17698
1033.62578,0.12028
1032.13599,0.16589
1030.64620,0.18718
1029.15642,0.18901
1027.66663,0.19249
1026.17684,0.19599
1024.68705,0.24661
1023.19726,0.26316
1021.70747,0.30571
1020.21769,0.26873
1018.72790,0.32270
1017.23811,0.32312
1015.74832,0.32357
1014.25853,0.43282
1012.76874,0.46254
1011.27896,0.53451
1009.78917,0.57727
1008.29938,0.70449
1006.80959,0.75949
1005.31980,0.81451
1003.83001,0.94505
1002.34022,1.04478
1000.85044,1.19486
999.36065,1.30113
997.87086,1.37902
996.38107,1.45693
994.89128,1.64933
993.40149,1.67128
991.91171,1.71599
990.42192,1.86139
988.93213,1.85095
987.44234,1.91846
985.95255,1.98601
984.46276,2.00000
982.97297,1.94420
981.48319,1.98909
979.99340,1.81970
978.50361,1.82567
977.01382,1.83168
975.52403,1.73380
974.03424,1.74960
972.54446,1.74919
971.05467,1.66925
969.56488,1.55687
968.07509,1.52488
966.58530,1.49291
965.09551,1.39035
963.60573,1.35113
962.11594,1.40124
960.62615,1.21595
959.13636,1.20442
957.64657,1.19291
956.15678,1.14246
954.66699,1.05956
953.17721,1.02378
951.68742,1.01562
950.19763,0.92794
948.70784,0.84028
947.21805,0.95884
945.72826,0.96216
944.23848,0.97362
942.74869,0.84223
941.25890,0.80990
939.76911,0.80034
938.27932,0.79080
936.78953,0.82187
935.29974,0.83349
933.80996,0.94580
932.32017,0.89578
930.83038,0.88962
929.34059,0.88348
927.85080,0.85140
926.36101,0.93786
924.87123,0.97402
923.38144,1.01508
921.89165,1.02369
920.40186,1.03233
918.91207,1.13029
917.42228,1.15197
915.93250,1.10224
914.44271,1.20840
912.95292,1.22367
911.46313,1.23896
909.97334,1.21369
908.48355,1.44659
906.99376,1.43599
905.50398,1.61375
904.01419,1.65921
902.52440,1.70470
901.03461,1.68121
899.54482,1.66424
898.05503,1.70737
896.56525,1.76027
895.07546,1.70198
893.58567,1.64371
892.09588,1.63824
890.60609,1.55162
889.11630,1.56406
887.62651,1.50834
886.13673,1.52165
884.64694,1.53498
883.15715,1.44849
881.66736,1.34254
880.17757,1.29182
878.68778,1.24356
877.19800,1.19533
875.70821,1.02130
874.21842,0.99017
872.72863,0.87464
871.23884,0.78836
869.74905,0.74432
868.25927,0.70030
866.76948,0.68554
865.27969,0.65620
863.78990,0.66747
862.30011,0.47906
860.81032,0.46846
859.32053,0.45789
857.83075,0.42705
856.34096,0.49528
854.85117,0.38169
853.36138,0.28924
851.87159,0.28773
850.38180,0.28625
848.89202,0.21336
847.40223,0.24116
845.91244,0.19917
844.42265,0.17669
842.93286,0.15423
841.44307,0.12206
839.95329,0.13051
838.46350,0.09352
836.97371,0.05494
835.48392,0.07402
833.99413,0.09313
832.50434,0.06923
831.01455,0.08109
829.52477,0.07998
828.03498,0.02532
826.54519,0.04131
825.05540,0.05733
823.56561,0.08718
822.07582,0.05048
820.58604,0.02680
819.09625,0.01938
817.60646,0.01199
816.11667,0.04360
814.62688,0.03463
813.13709,0.03057
811.64730,0.07524
810.15752,0.05905
808.66773,0.04289
807.17794,0.03731
805.68815,0.04637
804.19836,0.00025
802.70857,0.04261
801.21879,0.08500
799.72900,0.08845
798.23921,0.15525
796.74942,0.14252
795.25963,0.17527
793.76984,0.20805
792.28006,0.21164
790.79027,0.23635
789.30048,0.26110
787.81069,0.25664
786.32090,0.25871
784.83111,0.26080
783.34132,0.24181
781.85154,0.25207
780.36175,0.34354
778.87196,0.34411
777.38217,0.34472
775.89238,0.35346
774.40259,0.41744
772.91281,0.41162
771.42302,0.43912
769.93323,0.46664
768.44344,0.38784
766.95365,0.41786
765.46386,0.39269
763.97407,0.34482
762.48429,0.30834
760.99450,0.27189
759.50471,0.29554
758.01492,0.23966
756.52513,0.18868
755.03534,0.18156
753.54556,0.17447
752.05577,0.18201
750.56598,0.11328
749.07619,0.07217
747.58640,0.05950
746.09661,0.04686
744.60683,0.06428
743.11704,0.08172
741.62725,0.05698
740.13746,0.05744
738.64767,0.05792
737.15788,0.09171
735.66809,0.06382
734.17831,0.00025
732.68852,0.01737
731.19873,0.03453
729.70894,0.01030
728.21915,0.00071
726.72936,0.08089
725.23958,0.04094
723.74979,0.02944
722.26000,0.01796
720.77021,0.03492
719.28042,0.07626
717.79063,0.04456
716.30084,0.03237
714.81106,0.02021
713.32127,0.01133
711.83148,0.03819
710.34169,0.04559
708.85190,0.03192
707.36211,0.01827
705.87233,0.05173
704.38254,0.05924
702.89275,0.00670
701.40296,0.02542
699.91317,0.04416
698.42338,0.11002
696.93360,0.14993
695.44381,0.12654
693.95402,0.14701
692.46423,0.16752
690.97444,0.04841
689.48465,0.04137
687.99486,0.00025
686.50508,0.02747
685.01529,0.05473
683.52550,0.02274
682.03571,0.03137
680.54592,0.05140
679.05613,0.04223
677.56635,0.03308
676.07656,0.05318
674.58677,0.00025
673.09698,0.06169
671.60719,0.08094
670.11740,0.10022
668.62761,0.04321
667.13783,0.06092
665.64804,0.04050
664.15825,0.02011
662.66846,0.03952
661.17867,0.06220
659.68888,0.03945
658.19910,0.04352
656.70931,0.04761
655.21952,0.04442
653.72973,0.06562
652.23994,0.07547
650.75015,0.06993
649.26037,0.06441
647.77058,0.10682
646.28079,0.04859
644.79100,0.05695
643.30121,0.04505
641.81142,0.03317
640.32163,0.10169
638.83185,0.01761
637.34206,0.07482
635.85227,0.07685
634.36248,0.07890
632.87269,0.04039
631.38290,0.03438
629.89312,0.03002
628.40333,0.03706
626.91354,0.04412
625.42375,0.04471
623.93396,0.05182
622.44417,0.03379
620.95438,0.01579
619.46460,0.00025
617.97481,0.03630
616.48502,0.08699
614.99523,0.07033
613.50544,0.05369
612.01565,0.06387
610.52587,0.12116
609.03608,0.10055
607.54629,0.10025
606.05650,0.09998
604.56671,0.11679
603.07692,0.14336
601.58714,0.11963
600.09735,0.09593
598.60756,0.05277
597.11777,0.09244
595.62798,0.07044
594.13819,0.05577
592.64840,0.04113
591.15862,0.18482
589.66883,0.19539
588.17904,0.07611
586.68925,0.09973
585.19946,0.12337
583.70967,0.16653
582.21989,0.24218
580.73010,0.22532
579.24031,0.20848
577.75052,0.20791
576.26073,0.31776
574.77094,0.26366
573.28115,0.31512
571.79137,0.36661
570.30158,0.40513
568.81179,0.40959
567.32200,0.46765
565.83221,0.52573
564.34242,0.59521
562.85264,0.62575
561.36285,0.64982
559.87306,0.65200
558.38327,0.65421
556.89348,0.79363
555.40369,0.87788
553.91391,0.88342
552.42412,0.88897
550.93433,0.90511
549.44454,0.85146
547.95475,0.88389
546.46496,0.90092
544.97517,0.91798
543.48539,1.01705
541.99560,0.93268
540.50581,1.00827
539.01602,1.08388
537.52623,1.13923
536.03644,1.03873
534.54666,1.14933
533.05687,1.09435
531.56708,1.03939
530.07729,0.94712
528.58750,0.93930
527.09771,0.95830
525.60792,0.97733
524.11814,0.85918
522.62835,0.87745
521.13856,0.82106
519.64877,0.79635
518.15898,0.77167
516.66919,0.69750
515.17941,0.61361
513.68962,0.63284
512.19983,0.65211
510.71004,0.59590
509.22025,0.57381
507.73046,0.45921
506.24068,0.44043
504.75089,0.42167
503.26110,0.46626
501.77131,0.38423
500.28152,0.40452
498.79173,0.42483
497.30194,0.31204
495.81216,0.26746
494.32237,0.23184
492.83258,0.19625
491.34279,0.24754
489.85300,0.24204
488.36321,0.23981
486.87343,0.19864
485.38364,0.15749
483.89385,0.23815
482.40406,0.25226
480.91427,0.22987
479.42448,0.20750
477.93469,0.12103
476.44491,0.12875
474.95512,0.13731
473.46533,0.14590
471.97554,0.13422
470.48575,0.10146
468.99596,0.14504
467.50618,0.17809
466.01639,0.21116
464.52660,0.18663
463.03681,0.16049
461.54702,0.16036
460.05723,0.16026
458.56745,0.16181
457.07766,0.18611
455.58787,0.18366
454.09808,0.18123
452.60829,0.30465
451.11850,0.35342
449.62871,0.33158
448.13893,0.30977
446.64914,0.33913
445.15935,0.36527
443.66956,0.41580
442.17977,0.47933
440.68998,0.54290
439.20020,0.47660
437.71041,0.55158
436.22062,0.59817
434.73083,0.64480
433.24104,0.68576
431.75125,0.79170
430.26146,0.78969
428.77168,0.78771
427.28189,0.90509
425.79210,0.90560
424.30231,0.96215
422.81252,1.01873
421.32273,1.16057
419.83295,1.25211
418.34316,1.22758
416.85337,1.20308
415.36358,0.96673
413.87379,0.94310
412.38400,0.93085
410.89422,0.91864
409.40443,0.90158
407.91464,1.03067
406.42485,1.03639
404.93506,1.01048
403.44527,0.98460
401.95548,1.02450
400.46570,0.95727
398.97591,0.94851
397.48612,0.93978
395.99633,0.94082
394.50654,0.95325
393.01675,0.89427
391.52697,0.83532
390.03718,0.89653
388.54739,0.82951
387.05760,0.81853
385.56781,0.80758
384.07802,0.76987
382.58824,0.78900
381.09845,0.79437
379.60866,0.79976
378.11887,0.68259
376.62908,0.58981
375.13929,0.57985
373.64950,0.56992
372.15972,0.51943
370.66993,0.38778
369.18014,0.40635
367.69035,0.42494
366.20056,0.43138
364.71077,0.33231
363.22099,0.33799
361.73120,0.34370
360.24141,0.13593
358.75162,0.16036
357.26183,0.14586
355.77204,0.13138
354.28225,0.14128
352.79247,0.14308
351.30268,0.10027
349.81289,0.05748
348.32310,0.12269
346.83331,0.10675
345.34352,0.05348
343.85374,0.00025
342.36395,0.00831
340.87416,0.06024
339.38437,0.05049
337.89458,0.04077
336.40479,0.02459
334.91501,0.00518
333.42522,0.04587
331.93543,0.08659
330.44564,0.08675
328.95585,0.00737
327.46606,0.03924
325.97627,0.07114
324.48649,0.04867
322.99670,0.00025
321.50691,0.02766
320.01712,0.05511
318.52733,0.03549
317.03754,0.11332
315.54776,0.07265
314.05797,0.03201
312.56818,0.02061
311.07839,0.03036
309.58860,0.02795
308.09881,0.02556
306.60902,0.01103
305.11924,0.08420
303.62945,0.06160
302.13966,0.03903
300.64987,0.00025
299.16008,0.00025
