1778.52000,0.00285
1777.03021,0.02574
1775.54042,0.01597
1774.05063,0.00975
1772.56085,0.01512
1771.07106,0.03359
1769.58127,0.03449
1768.09148,0.05201
1766.60169,0.03888
1765.11190,0.05193
1763.62212,0.04187
1762.13233,0.02883
1760.64254,0.04347
1759.15275,0.03349
1757.66296,0.05673
1756.17317,0.03726
1754.68339,0.03391
1753.19360,0.06627
1751.70381,0.03985
1750.21402,0.03305
1748.72423,0.02277
1747.23444,0.03211
1745.74465,0.03898
1744.25487,0.03480
1742.76508,0.04323
1741.27529,0.03358
1739.78550,0.02999
1738.29571,0.04352
1736.80592,0.04149
1735.31614,0.04352
1733.82635,0.02897
1732.33656,0.03055
1730.84677,0.02813
1729.35698,0.02322
1727.86719,0.02286
1726.37740,0.02103
1724.88762,0.01570
1723.39783,0.02498
1721.90804,0.02121
1720.41825,0.01194
1718.92846,0.00722
1717.43867,0.03672
1715.94889,0.02350
1714.45910,0.01384
1712.96931,0.01677
1711.47952,0.02476
1709.98973,0.02573
1708.49994,0.04936
1707.01016,0.03279
1705.52037,0.01625
1704.03058,0.01481
1702.54079,0.00285
1701.05100,0.01842
1699.56121,0.01490
1698.07142,0.02750
1696.58164,0.02153
1695.09185,0.01860
1693.60206,0.01519
1692.11227,0.02790
1690.62248,0.02103
1689.13269,0.02223
1687.64291,0.02748
1686.15312,0.03476
1684.66333,0.02850
1683.17354,0.03484
1681.68375,0.02712
1680.19396,0.01742
1678.70417,0.01932
1677.21439,0.01721
1675.72460,0.02821
1674.23481,0.01962
1672.74502,0.02363
1671.25523,0.02415
1669.76544,0.03023
1668.27566,0.03382
1666.78587,0.03844
1665.29608,0.04309
1663.80629,0.02665
1662.31650,0.04292
1660.82671,0.05418
1659.33693,0.03330
1657.84714,0.04512
1656.35735,0.01725
1654.86756,0.00701
1653.37777,0.03852
1651.88798,0.04140
1650.39819,0.04381
1648.90841,0.05026
1647.41862,0.03914
1645.92883,0.03409
1644.43904,0.02906
1642.94925,0.03864
1641.45946,0.04573
1639.96968,0.02872
1638.47989,0.01928
1636.99010,0.03852
1635.50031,0.02712
1634.01052,0.02630
1632.52073,0.02601
1631.03094,0.03179
1629.54116,0.03055
1628.05137,0.04442
1626.56158,0.03921
1625.07179,0.04107
1623.58200,0.02335
1622.09221,0.01923
1620.60243,0.03173
1619.11264,0.01912
1617.62285,0.02614
1616.13306,0.02615
1614.64327,0.05435
1613.15348,0.02173
1611.66370,0.03942
1610.17391,0.03501
1608.68412,0.02309
1607.19433,0.02880
1605.70454,0.03352
1604.21475,0.03350
1602.72496,0.03350
1601.23518,0.02373
1599.74539,0.02655
1598.25560,0.02236
1596.76581,0.02875
1595.27602,0.03618
1593.78623,0.02001
1592.29645,0.02900
1590.80666,0.01388
1589.31687,0.03449
1587.82708,0.02496
1586.33729,0.02350
1584.84750,0.00598
1583.35771,0.01413
1581.86793,0.01124
1580.37814,0.00285
1578.88835,0.03174
1577.39856,0.02395
1575.90877,0.01267
1574.41898,0.01550
1572.92920,0.00528
1571.43941,0.00816
1569.94962,0.00729
1568.45983,0.00646
1566.97004,0.02299
1565.48025,0.00285
1563.99047,0.01624
1562.50068,0.01106
1561.01089,0.00540
1559.52110,0.01867
1558.03131,0.02543
1556.54152,0.02517
1555.05173,0.03299
1553.56195,0.03430
1552.07216,0.03161
1550.58237,0.05107
1549.09258,0.03134
1547.60279,0.04030
1546.11300,0.04175
1544.62322,0.06282
1543.13343,0.02159
1541.64364,0.03618
1540.15385,0.03748
1538.66406,0.03881
1537.17427,0.05499
1535.68448,0.02696
1534.19470,0.03114
1532.70491,0.03383
1531.21512,0.03102
1529.72533,0.01717
1528.23554,0.00285
1526.74575,0.01312
1525.25597,0.02443
1523.76618,0.03526
1522.27639,0.02399
1520.78660,0.02432
1519.29681,0.00758
1517.80702,0.02907
1516.31724,0.02898
1514.82745,0.01332
1513.33766,0.01856
1511.84787,0.02382
1510.35808,0.02132
1508.86829,0.01734
1507.37850,0.03047
1505.88872,0.02152
1504.39893,0.02767
1502.90914,0.02078
1501.41935,0.00285
1499.92956,0.03065
1498.43977,0.02530
1496.94999,0.04260
1495.46020,0.02121
1493.97041,0.04560
1492.48062,0.04790
1490.99083,0.07586
1489.50104,0.09279
1488.01125,0.10447
1486.52147,0.11617
1485.03168,0.11659
1483.54189,0.14771
1482.05210,0.15824
1480.56231,0.18740
1479.07252,0.21658
1477.58274,0.22267
1476.09295,0.24939
1474.60316,0.22637
1473.11337,0.26974
1471.62358,0.24879
1470.13379,0.23490
1468.64401,0.22003
1467.15422,0.20368
1465.66443,0.19993
1464.17464,0.19620
1462.68485,0.15479
1461.19506,0.15967
1459.70527,0.15451
1458.21549,0.07649
1456.72570,0.08396
1455.23591,0.08944
1453.74612,0.06479
1452.25633,0.07385
1450.76654,0.04321
1449.27676,0.04026
1447.78697,0.03532
1446.29718,0.06360
1444.80739,0.05343
1443.31760,0.04330
1441.82781,0.05255
1440.33802,0.04171
1438.84824,0.01582
1437.35845,0.02364
1435.86866,0.04858
1434.37887,0.02830
1432.88908,0.02615
1431.39929,0.04816
1429.90951,0.05008
1428.41972,0.03293
1426.92993,0.06105
1425.44014,0.07713
1423.95035,0.08343
1422.46056,0.08977
1420.97078,0.10844
1419.48099,0.13418
1417.99120,0.10616
1416.50141,0.11184
1415.01162,0.09745
1413.52183,0.12380
1412.03204,0.11398
1410.54226,0.14793
1409.05247,0.16230
1407.56268,0.13899
1406.07289,0.16799
1404.58310,0.16308
1403.09331,0.15820
1401.60353,0.13801
1400.11374,0.16461
1398.62395,0.19123
1397.13416,0.20934
1395.64437,0.24356
1394.15458,0.24814
1392.66479,0.20197
1391.17501,0.21516
1389.68522,0.20021
1388.19543,0.20641
1386.70564,0.20309
1385.21585,0.19979
1383.72606,0.18445
1382.23628,0.17618
1380.74649,0.19961
1379.25670,0.20195
1377.76691,0.21889
1376.27712,0.27961
1374.78733,0.32225
1373.29755,0.41218
1371.80776,0.47901
1370.31797,0.63586
1368.82818,0.69144
1367.33839,0.74703
1365.84860,0.82252
1364.35881,0.91412
1362.86903,0.98161
1361.37924,0.97875
1359.88945,0.98144
1358.39966,0.93438
1356.90987,0.91501
1355.42008,0.81320
1353.93030,0.71545
1352.44051,0.69188
1350.95072,0.66834
1349.46093,0.57268
1347.97114,0.45743
1346.48135,0.41562
1344.99156,0.33160
1343.50178,0.30141
1342.01199,0.25264
1340.52220,0.22652
1339.03241,0.19490
1337.54262,0.17688
1336.05283,0.17372
1334.56305,0.17059
1333.07326,0.13254
1331.58347,0.13524
1330.09368,0.11133
1328.60389,0.09699
1327.11410,0.09625
1325.62432,0.08700
1324.13453,0.05062
1322.64474,0.01376
1321.15495,0.00208
1319.66516,0.01606
1318.17537,0.03006
1316.68558,0.01644
1315.19580,0.00285
1313.70601,0.01058
1312.21622,0.03140
1310.72643,0.02762
1309.23664,0.02336
1307.74685,0.01208
1306.25707,0.02397
1304.76728,0.01878
1303.27749,0.01362
1301.78770,0.03313
1300.29791,0.03154
1298.80812,0.01541
1297.31834,0.02343
1295.82855,0.01438
1294.33876,0.01593
1292.84897,0.01598
1291.35918,0.03367
1289.86939,0.03730
1288.37960,0.04096
1286.88982,0.01046
1285.40003,0.03278
1283.91024,0.02344
1282.42045,0.00258
1280.93066,0.00285
1279.44087,0.02648
1277.95109,0.03808
1276.46130,0.00948
1274.97151,0.01107
1273.48172,0.01269
1271.99193,0.02087
1270.50214,0.04366
1269.01235,0.03983
1267.52257,0.05765
1266.03278,0.06342
1264.54299,0.08381
1263.05320,0.06551
1261.56341,0.06382
1260.07362,0.06216
1258.58384,0.09020
1257.09405,0.06296
1255.60426,0.06037
1254.11447,0.06285
1252.62468,0.06736
1251.13489,0.06486
1249.64511,0.04378
1248.15532,0.03329
1246.66553,0.04194
1245.17574,0.05060
1243.68595,0.03617
1242.19616,0.04892
1240.70637,0.03706
1239.21659,0.02472
1237.72680,0.00285
1236.23701,0.03445
1234.74722,0.02484
1233.25743,0.03412
1231.76764,0.04342
1230.27786,0.04345
1228.78807,0.02943
1227.29828,0.02901
1225.80849,0.04370
1224.31870,0.02876
1222.82891,0.05557
1221.33912,0.03313
1219.84934,0.02506
1218.35955,0.01701
1216.86976,0.01929
1215.37997,0.03266
1213.89018,0.02595
1212.40039,0.02379
1210.91061,0.03071
1209.42082,0.01352
1207.93103,0.00817
1206.44124,0.00285
1204.95145,0.02795
1203.46166,0.00531
1201.97188,0.01638
1200.48209,0.01039
1198.99230,0.01096
1197.50251,0.00753
1196.01272,0.00212
1194.52293,0.00385
1193.03314,0.00560
1191.54336,0.02724
1190.05357,0.00517
1188.56378,0.00223
1187.07399,0.02522
1185.58420,0.00248
1184.09441,0.01093
1182.60463,0.01389
1181.11484,0.01687
1179.62505,0.01083
1178.13526,0.00582
1176.64547,0.00285
1175.15568,0.01051
1173.66589,0.03378
1172.17611,0.07367
1170.68632,0.04345
1169.19653,0.01325
1167.70674,0.01149
1166.21695,0.00574
1164.72716,0.03671
1163.23738,0.00285
1161.74759,0.02119
1160.25780,0.02448
1158.76801,0.02100
1157.27822,0.01755
1155.78843,0.00281
1154.29865,0.01224
1152.80886,0.04230
1151.31907,0.04776
1149.82928,0.06883
1148.33949,0.08239
1146.84970,0.06605
1145.35991,0.04975
1143.87013,0.06037
1142.38034,0.07403
1140.89055,0.07063
1139.40076,0.06675
1137.91097,0.06440
1136.42118,0.06008
1134.93140,0.07765
1133.44161,0.09524
1131.95182,0.08396
1130.46203,0.13454
1128.97224,0.12079
1127.48245,0.10406
1125.99266,0.10495
1124.50288,0.10838
1123.01309,0.13923
1121.52330,0.17012
1120.03351,0.15000
1118.54372,0.15706
1117.05393,0.19129
1115.56415,0.20594
1114.07436,0.21007
1112.58457,0.22829
1111.09478,0.24654
1109.60499,0.27388
1108.11520,0.28866
1106.62542,0.29845
1105.13563,0.39625
1103.64584,0.40408
1102.15605,0.47629
1100.66626,0.46708
1099.17647,0.45790
1097.68668,0.48243
1096.19690,0.51704
1094.70711,0.54666
1093.21732,0.55819
1091.72753,0.60244
1090.23774,0.62962
1088.74795,0.65683
1087.25817,0.61669
1085.76838,0.65752
1084.27859,0.64660
1082.78880,0.62565
1081.29901,0.66003
1079.80922,0.70248
1078.31943,0.70423
1076.82965,0.70602
1075.33986,0.66358
1073.85007,0.65486
1072.36028,0.68387
1070.87049,0.61286
1069.38070,0.56701
1067.89092,0.57323
1066.40113,0.57947
1064.91134,0.57896
1063.42155,0.51009
1061.93176,0.50309
1060.44197,0.42171
1058.95219,0.36751
1057.46240,0.38799
1055.97261,0.40850
1054.48282,0.37399
1052.99303,0.33095
1051.50324,0.30504
1050.01345,0.29976
1048.52367,0.27038
1047.03388,0.25586
1045.54409,0.24137
1044.05430,0.21861
1042.56451,0.20643
1041.07472,0.16663
1039.58494,0.16255
1038.09515,0.14492
1036.60536,0.15171
1035.11557,0.15852
1033.62578,0.14449
1032.13599,0.16569
1030.64620,0.16479
1029.15642,0.17950
1027.66663,0.18444
1026.17684,0.18940
1024.68705,0.23637
1023.19726,0.22153
1021.70747,0.24040
1020.21769,0.22209
1018.72790,0.28878
1017.23811,0.31854
1015.74832,0.34833
1014.25853,0.36885
1012.76874,0.43765
1011.27896,0.48990
1009.78917,0.57836
1008.29938,0.66334
1006.80959,0.69857
1005.31980,0.73383
1003.83001,0.86313
1002.34022,0.95525
1000.85044,1.11327
999.36065,1.27835
997.87086,1.36150
996.38107,1.44468
994.89128,1.53996
993.40149,1.62521
991.91171,1.74567
990.42192,1.86818
988.93213,1.95502
987.44234,1.95465
985.95255,1.95431
984.46276,2.00000
982.97297,1.95622
981.48319,1.90644
979.99340,1.88484
978.50361,1.90198
977.01382,1.91915
975.52403,1.98009
974.03424,1.89676
972.54446,1.79988
971.05467,1.75783
969.56488,1.67659
968.07509,1.63735
966.58530,1.59815
965.09551,1.58788
963.60573,1.53189
962.11594,1.45782
960.62615,1.42602
959.13636,1.37589
957.64657,1.32578
956.15678,1.25334
954.66699,1.21108
953.17721,1.12360
951.68742,1.07285
950.19763,1.05908
948.70784,1.04534
947.21805,1.03540
945.72826,0.98023
944.23848,0.94621
942.74869,0.93585
941.25890,0.89735
939.76911,0.87648
938.27932,0.85564
936.78953,0.89466
935.29974,0.89348
933.80996,0.86417
932.32017,0.90276
930.83038,0.92856
929.34059,0.95439
927.85080,0.96390
926.36101,0.95634
924.87123,0.97647
923.38144,1.03835
921.89165,1.03239
920.40186,1.02645
918.91207,1.07132
917.42228,1.08756
915.93250,1.14656
914.44271,1.24581
912.95292,1.24705
911.46313,1.24831
909.97334,1.26519
908.48355,1.28360
906.99376,1.39002
905.50398,1.46631
904.01419,1.47776
902.52440,1.48924
901.03461,1.58069
899.54482,1.60480
898.05503,1.63848
896.56525,1.66214
895.07546,1.64057
893.58567,1.61903
892.09588,1.52813
890.60609,1.45939
889.11630,1.42989
887.62651,1.42153
886.13673,1.40666
884.64694,1.39182
883.15715,1.38505
881.66736,1.27876
880.17757,1.18909
878.68778,1.15852
877.19800,1.12797
875.70821,1.01827
874.21842,0.91362
872.72863,0.86179
871.23884,0.79843
869.74905,0.77456
868.25927,0.75071
866.76948,0.67787
865.27969,0.61562
863.78990,0.59261
862.30011,0.54851
860.81032,0.51626
859.32053,0.48403
857.83075,0.46515
856.34096,0.39099
854.85117,0.37217
853.36138,0.34030
851.87159,0.30770
850.38180,0.27513
848.89202,0.26345
847.40223,0.22917
845.91244,0.18839
844.42265,0.17704
842.93286,0.16573
841.44307,0.13659
839.95329,0.10446
838.46350,0.09297
836.97371,0.08704
835.48392,0.09018
833.99413,0.09335
832.50434,0.08197
831.01455,0.07464
829.52477,0.06985
828.03498,0.03894
826.54519,0.05055
825.05540,0.06218
823.56561,0.02180
822.07582,0.00307
820.58604,0.01252
819.09625,0.02425
817.60646,0.03602
816.11667,0.03600
814.62688,0.01338
813.13709,0.00285
811.64730,0.02302
810.15752,0.02109
808.66773,0.01919
807.17794,0.00525
805.68815,0.02100
804.19836,0.06794
802.70857,0.06766
801.21879,0.06740
799.72900,0.08225
798.23921,0.08155
796.74942,0.13064
795.25963,0.15588
793.76984,0.18115
792.28006,0.21574
790.79027,0.23779
789.30048,0.22418
787.81069,0.25735
786.32090,0.24956
784.83111,0.24181
783.34132,0.27255
781.85154,0.28068
780.36175,0.31901
778.87196,0.33651
777.38217,0.35403
775.89238,0.33915
774.40259,0.35144
772.91281,0.32053
771.42302,0.34796
769.93323,0.37542
768.44344,0.39888
766.95365,0.34947
765.46386,0.34986
763.97407,0.33067
762.48429,0.30447
760.99450,0.27829
759.50471,0.21243
758.01492,0.17525
756.52513,0.12904
755.03534,0.12334
753.54556,0.11766
752.05577,0.05947
750.56598,0.06968
749.07619,0.05479
747.58640,0.05399
746.09661,0.05323
744.60683,0.04193
743.11704,0.04273
741.62725,0.00836
740.13746,0.01549
738.64767,0.02265
737.15788,0.04819
735.66809,0.03656
734.17831,0.03500
732.68852,0.03222
731.19873,0.02946
729.70894,0.02949
728.21915,0.03056
726.72936,0.01959
725.23958,0.01719
723.74979,0.01909
722.26000,0.02102
720.77021,0.01669
719.28042,0.01742
717.79063,0.01415
716.30084,0.01191
714.81106,0.00970
713.32127,0.00350
711.83148,0.00285
710.34169,0.00600
708.85190,0.03055
707.36211,0.05513
705.87233,0.03272
704.38254,0.00682
702.89275,0.00307
701.40296,0.02449
699.91317,0.04594
698.42338,0.04353
696.93360,0.06880
695.44381,0.07047
693.95402,0.05080
692.46423,0.03116
690.97444,0.02688
689.48465,-0.00000
687.99486,0.01113
686.50508,0.00896
685.01529,0.00682
683.52550,0.02557
682.03571,0.03580
680.54592,0.02544
679.05613,0.02190
677.56635,0.01839
676.07656,0.03577
674.58677,0.00490
673.09698,0.01864
671.60719,0.02336
670.11740,0.02810
668.62761,0.01377
667.13783,0.00248
665.64804,0.01392
664.15825,0.02540
662.66846,0.01779
661.17867,0.01373
659.68888,0.02881
658.19910,0.02003
656.70931,0.01127
655.21952,0.01386
653.72973,0.02401
652.23994,0.02615
650.75015,0.01449
649.26037,0.00285
647.77058,0.03626
646.28079,0.03400
644.79100,0.03881
643.30121,0.03258
641.81142,0.02638
640.32163,0.02423
638.83185,0.01859
637.34206,0.03057
635.85227,0.02875
634.36248,0.02696
632.87269,0.01589
631.38290,0.00887
629.89312,0.03155
628.40333,0.04520
626.91354,0.05887
625.42375,0.04945
623.93396,0.00285
622.44417,0.02346
620.95438,0.04410
619.46460,0.07381
617.97481,0.07338
616.48502,0.06142
614.99523,0.04647
613.50544,0.03154
612.01565,0.06340
610.52587,0.09126
609.03608,0.08698
607.54629,0.08171
606.05650,0.07648
604.56671,0.10495
603.07692,0.09725
601.58714,0.06997
600.09735,0.04272
598.60756,0.07935
597.11777,0.04210
595.62798,0.06369
594.13819,0.06772
592.64840,0.07178
591.15862,0.11457
589.66883,0.15438
588.17904,0.14947
586.68925,0.15740
585.19946,0.16536
583.70967,0.21181
582.21989,0.22008
580.73010,0.21027
579.24031,0.20050
577.75052,0.22091
576.26073,0.24437
574.77094,0.30104
573.28115,0.30871
571.79137,0.31641
570.30158,0.39730
568.81179,0.44854
567.32200,0.46010
565.83221,0.47168
564.34242,0.55015
562.85264,0.57335
561.36285,0.62222
559.87306,0.66935
558.38327,0.71651
556.89348,0.69658
555.40369,0.80237
553.91391,0.81794
552.42412,0.83353
550.93433,0.83583
549.44454,0.88341
547.95475,0.91593
546.46496,0.92509
544.97517,0.93429
543.48539,0.92767
541.99560,0.96533
540.50581,0.96229
539.01602,0.95927
537.52623,0.96533
536.03644,1.00360
534.54666,0.97804
533.05687,0.97865
531.56708,0.97929
530.07729,0.89046
528.58750,0.86652
527.09771,0.85643
525.60792,0.84637
524.11814,0.81346
522.62835,0.80471
521.13856,0.76481
519.64877,0.73324
518.15898,0.70169
516.66919,0.61864
515.17941,0.57935
513.68962,0.55543
512.19983,0.53153
510.71004,0.52049
509.22025,0.44863
507.73046,0.40093
506.24068,0.37463
504.75089,0.34836
503.26110,0.31683
501.77131,0.29136
500.28152,0.28327
498.79173,0.27520
497.30194,0.27043
495.81216,0.24205
494.32237,0.23357
492.83258,0.22510
491.34279,0.21491
489.85300,0.22133
488.36321,0.15136
486.87343,0.15759
485.38364,0.16384
483.89385,0.17038
482.40406,0.15733
480.91427,0.14531
479.42448,0.13332
477.93469,0.13494
476.44491,0.11747
474.95512,0.10581
473.46533,0.09418
471.97554,0.09993
470.48575,0.11726
468.99596,0.10144
467.50618,0.11254
466.01639,0.12367
464.52660,0.09184
463.03681,0.11585
461.54702,0.12078
460.05723,0.12573
458.56745,0.15836
457.07766,0.16940
455.58787,0.17368
454.09808,0.17799
452.60829,0.23436
451.11850,0.27116
449.62871,0.26851
448.13893,0.26588
446.64914,0.35001
445.15935,0.35423
443.66956,0.39619
442.17977,0.45275
440.68998,0.50934
439.20020,0.54132
437.71041,0.60600
436.22062,0.61742
434.73083,0.62887
433.24104,0.68207
431.75125,0.73731
430.26146,0.76468
428.77168,0.79207
427.28189,0.78958
425.79210,0.77906
424.30231,0.80201
422.81252,0.82499
421.32273,0.91159
419.83295,0.96202
418.34316,0.96547
416.85337,0.96895
415.36358,0.84952
413.87379,0.88950
412.38400,0.89758
410.89422,0.90569
409.40443,0.89648
407.91464,0.92903
406.42485,0.89323
404.93506,0.91351
403.44527,0.93382
401.95548,0.92726
400.46570,0.92777
398.97591,0.92679
397.48612,0.92584
395.99633,0.94252
394.50654,0.90090
393.01675,0.89249
391.52697,0.88410
390.03718,0.85765
388.54739,0.88753
387.05760,0.83524
385.56781,0.78297
384.07802,0.76517
382.58824,0.70416
381.09845,0.69471
379.60866,0.68529
378.11887,0.61933
376.62908,0.60619
375.13929,0.57523
373.64950,0.54430
372.15972,0.44426
370.66993,0.38648
369.18014,0.37146
367.69035,0.35647
366.20056,0.35961
364.71077,0.32809
363.22099,0.29709
361.73120,0.26612
360.24141,0.17183
358.75162,0.14997
357.26183,0.13693
355.77204,0.12391
354.28225,0.12576
352.79247,0.10451
351.30268,0.10364
349.81289,0.10280
348.32310,0.09973
346.83331,0.07858
345.34352,0.05721
343.85374,0.03587
342.36395,0.06458
340.87416,0.03751
339.38437,0.04767
337.89458,0.05786
336.40479,0.04796
334.91501,0.02201
333.42522,0.01242
331.93543,0.00285
330.44564,0.03883
328.95585,0.05774
327.46606,0.06134
325.97627,0.06497
324.48649,0.08648
322.99670,0.07030
321.50691,0.04486
320.01712,0.01943
318.52733,0.03990
317.03754,0.02821
315.54776,0.02661
314.05797,0.02503
312.56818,0.07476
311.07839,0.00285
309.58860,0.00218
308.09881,0.00153
306.60902,0.03738
305.11924,0.03354
303.62945,0.02972
302.13966,0.02593
300.64987,0.03072
299.16008,0.00285
