1778.52000,0.01519
1777.03021,0.01124
1775.54042,0.00000
1774.05063,0.01805
1772.56085,0.00748
1771.07106,0.02680
1769.58127,0.03213
1768.09148,0.00945
1766.60169,0.02580
1765.11190,0.04645
1763.62212,0.00739
1762.13233,0.02078
1760.64254,0.02140
1759.15275,0.03606
1757.66296,0.02454
1756.17317,0.02401
1754.68339,0.01011
1753.19360,0.01756
1751.70381,0.03846
1750.21402,0.02219
1748.72423,0.03643
1747.23444,0.02937
1745.74465,0.02172
1744.25487,0.00739
1742.76508,0.01919
1741.27529,0.02614
1739.78550,0.04531
1738.29571,0.04256
1736.80592,0.04288
1735.31614,0.04506
1733.82635,0.03081
1732.33656,0.00866
1730.84677,0.04567
1729.35698,0.04186
1727.86719,0.03625
1726.37740,0.03981
1724.88762,0.03060
1723.39783,0.03300
1721.90804,0.02079
1720.41825,0.00739
1718.92846,0.02747
1717.43867,0.04758
1715.94889,0.04882
1714.45910,0.05679
1712.96931,0.03919
1711.47952,0.03929
1709.98973,0.06502
1708.49994,0.02433
1707.01016,0.03305
1705.52037,0.04179
1704.03058,0.06153
1702.54079,0.04168
1701.05100,0.07123
1699.56121,0.04899
1698.07142,0.04811
1696.58164,0.03264
1695.09185,0.04401
1693.60206,0.05540
1692.11227,0.05220
1690.62248,0.05146
1689.13269,0.08793
1687.64291,0.08114
1686.15312,0.10182
1684.66333,0.06096
1683.17354,0.06828
1681.68375,0.07257
1680.19396,0.07263
1678.70417,0.07211
1677.21439,0.07953
1675.72460,0.08821
1674.23481,0.09813
1672.74502,0.08735
1671.25523,0.07720
1669.76544,0.10061
1668.27566,0.11918
1666.78587,0.10911
1665.29608,0.10579
1663.80629,0.10431
1662.31650,0.11506
1660.82671,0.11851
1659.33693,0.15065
1657.84714,0.11575
1656.35735,0.11198
1654.86756,0.09847
1653.37777,0.12279
1651.88798,0.13799
1650.39819,0.12884
1648.90841,0.11239
1647.41862,0.09110
1645.92883,0.08690
1644.43904,0.08273
1642.94925,0.05421
1641.45946,0.07325
1639.96968,0.09842
1638.47989,0.08400
1636.99010,0.08179
1635.50031,0.03389
1634.01052,0.07990
1632.52073,0.06436
1631.03094,0.05983
1629.54116,0.09616
1628.05137,0.10996
1626.56158,0.07320
1625.07179,0.06267
1623.58200,0.05827
1622.09221,0.05572
1620.60243,0.05259
1619.11264,0.05010
1617.62285,0.07202
1616.13306,0.08909
1614.64327,0.07266
1613.15348,0.08612
1611.66370,0.06426
1610.17391,0.05034
1608.68412,0.06633
1607.19433,0.06405
1605.70454,0.07034
1604.21475,0.07208
1602.72496,0.07384
1601.23518,0.05522
1599.74539,0.04027
1598.25560,0.04913
1596.76581,0.03485
1595.27602,0.04194
1593.78623,0.04234
1592.29645,0.04338
1590.80666,0.04628
1589.31687,0.05103
1587.82708,0.03143
1586.33729,0.03807
1584.84750,0.04107
1583.35771,0.03313
1581.86793,0.04594
1580.37814,0.03196
1578.88835,0.04300
1577.39856,0.02480
1575.90877,0.02797
1574.41898,0.00739
1572.92920,0.02744
1571.43941,0.03288
1569.94962,0.03317
1568.45983,0.03349
1566.97004,0.02499
1565.48025,0.04091
1563.99047,0.03430
1562.50068,0.02223
1561.01089,0.02542
1559.52110,0.04083
1558.03131,0.03555
1556.54152,0.02907
1555.05173,0.03786
1553.56195,0.03509
1552.07216,0.02931
1550.58237,0.01684
1549.09258,0.03854
1547.60279,0.06880
1546.11300,0.06251
1544.62322,0.07149
1543.13343,0.05672
1541.64364,0.04015
1540.15385,0.02574
1538.66406,0.01136
1537.17427,0.03327
1535.68448,0.03571
1534.19470,0.03634
1532.70491,0.03395
1531.21512,0.03708
1529.72533,0.02377
1528.23554,0.02695
1526.74575,0.04113
1525.25597,0.01998
1523.76618,0.00739
1522.27639,0.00915
1520.78660,0.01459
1519.29681,0.01031
1517.80702,0.01190
1516.31724,0.03241
1514.82745,0.03406
1513.33766,0.02872
1511.84787,0.02341
1510.35808,0.01783
1508.86829,0.00800
1507.37850,0.03233
1505.88872,0.00488
1504.39893,0.01594
1502.90914,0.02336
1501.41935,0.02045
1499.92956,0.00720
1498.43977,0.00739
1496.94999,0.01522
1495.46020,0.01882
1493.97041,0.04804
1492.48062,0.06510
1490.99083,0.05597
1489.50104,0.06638
1488.01125,0.07224
1486.52147,0.07813
1485.03168,0.09959
1483.54189,0.13753
1482.05210,0.13223
1480.56231,0.17084
1479.07252,0.18570
1477.58274,0.19571
1476.09295,0.22770
1474.60316,0.24508
1473.11337,0.27773
1471.62358,0.27566
1470.13379,0.28458
1468.64401,0.25758
1467.15422,0.25132
1465.66443,0.24539
1464.17464,0.23950
1462.68485,0.22966
1461.19506,0.19304
1459.70527,0.18021
1458.21549,0.16314
1456.72570,0.16134
1455.23591,0.15896
1453.74612,0.12917
1452.25633,0.12319
1450.76654,0.11235
1449.27676,0.12105
1447.78697,0.12002
1446.29718,0.14523
1444.80739,0.12292
1443.31760,0.10063
1441.82781,0.08386
1440.33802,0.03603
1438.84824,0.02968
1437.35845,0.03433
1435.86866,0.03047
1434.37887,0.04858
1432.88908,0.03014
1431.39929,0.03855
1429.90951,0.04333
1428.41972,0.07374
1426.92993,0.07614
1425.44014,0.08161
1423.95035,0.09107
1422.46056,0.10056
1420.97078,0.12928
1419.48099,0.17021
1417.99120,0.13803
1416.50141,0.12964
1415.01162,0.15968
1413.52183,0.14830
1412.03204,0.17109
1410.54226,0.16464
1409.05247,0.18321
1407.56268,0.16462
1406.07289,0.16191
1404.58310,0.18147
1403.09331,0.20107
1401.60353,0.18320
1400.11374,0.18913
1398.62395,0.24202
1397.13416,0.23825
1395.64437,0.25341
1394.15458,0.26006
1392.66479,0.24113
1391.17501,0.25271
1389.68522,0.22469
1388.19543,0.23267
1386.70564,0.22665
1385.21585,0.22066
1383.72606,0.20799
1382.23628,0.18743
1380.74649,0.21565
1379.25670,0.21038
1377.76691,0.25999
1376.27712,0.33158
1374.78733,0.35138
1373.29755,0.45289
1371.80776,0.52212
1370.31797,0.63039
1368.82818,0.68596
1367.33839,0.74156
1365.84860,0.91330
1364.35881,1.00157
1362.86903,1.04840
1361.37924,1.06296
1359.88945,1.06475
1358.39966,1.07326
1356.90987,1.02145
1355.42008,0.94529
1353.93030,0.87038
1352.44051,0.82932
1350.95072,0.78829
1349.46093,0.70980
1347.97114,0.59354
1346.48135,0.47792
1344.99156,0.44523
1343.50178,0.41561
1342.01199,0.36895
1340.52220,0.30098
1339.03241,0.28608
1337.54262,0.24498
1336.05283,0.24324
1334.56305,0.24152
1333.07326,0.21636
1331.58347,0.23450
1330.09368,0.19233
1328.60389,0.18858
1327.11410,0.15743
1325.62432,0.11412
1324.13453,0.08302
1322.64474,0.09158
1321.15495,0.10747
1319.66516,0.09596
1318.17537,0.08448
1316.68558,0.09802
1315.19580,0.08172
1313.70601,0.09714
1312.21622,0.07114
1310.72643,0.07137
1309.23664,0.07712
1307.74685,0.03535
1306.25707,0.05578
1304.76728,0.04912
1303.27749,0.04248
1301.78770,0.03434
1300.29791,0.01892
1298.80812,0.02668
1297.31834,0.03631
1295.82855,0.04717
1294.33876,0.04405
1292.84897,0.02876
1291.35918,0.02874
1289.86939,0.03667
1288.37960,0.04462
1286.88982,0.04041
1285.40003,0.02404
1283.91024,0.02172
1282.42045,0.01332
1280.93066,0.00739
1279.44087,0.03791
1277.95109,0.05443
1276.46130,0.07707
1274.97151,0.05372
1273.48172,0.03039
1271.99193,0.02934
1270.50214,0.04173
1269.01235,0.02672
1267.52257,0.04708
1266.03278,0.07235
1264.54299,0.03060
1263.05320,0.06446
1261.56341,0.06573
1260.07362,0.06703
1258.58384,0.08817
1257.09405,0.06179
1255.60426,0.06774
1254.11447,0.05848
1252.62468,0.06022
1251.13489,0.01627
1249.64511,0.01990
1248.15532,0.04305
1246.66553,0.04886
1245.17574,0.05470
1243.68595,0.04502
1242.19616,0.01952
1240.70637,0.02513
1239.21659,0.03321
1237.72680,0.05412
1236.23701,0.00739
1234.74722,0.02619
1233.25743,0.02824
1231.76764,0.03033
1230.27786,0.06810
1228.78807,0.06140
1227.29828,0.05839
1225.80849,0.04991
1224.31870,0.00977
1222.82891,0.05737
1221.33912,0.03917
1219.84934,0.05239
1218.35955,0.06563
1216.86976,0.05056
1215.37997,0.06172
1213.89018,0.05158
1212.40039,0.06219
1210.91061,0.07405
1209.42082,0.06338
1207.93103,0.04542
1206.44124,0.02749
1204.95145,0.02421
1203.46166,0.03864
1201.97188,0.00738
1200.48209,0.00739
1198.99230,0.01173
1197.50251,0.03256
1196.01272,0.05586
1194.52293,0.04382
1193.03314,0.03181
1191.54336,0.03995
1190.05357,0.04567
1188.56378,0.04350
1187.07399,0.02672
1185.58420,0.01973
1184.09441,0.03348
1182.60463,0.04056
1181.11484,0.04767
1179.62505,0.02920
1178.13526,0.05647
1176.64547,0.00880
1175.15568,0.02881
1173.66589,0.02995
1172.17611,0.02564
1170.68632,0.03568
1169.19653,0.04574
1167.70674,0.03297
1166.21695,0.02145
1164.72716,0.04104
1163.23738,0.02531
1161.74759,0.02606
1160.25780,0.03659
1158.76801,0.04623
1157.27822,0.05591
1155.78843,0.02629
1154.29865,0.03875
1152.80886,0.04820
1151.31907,0.03512
1149.82928,0.02329
1148.33949,0.04683
1146.84970,0.04785
1145.35991,0.04890
1143.87013,0.03839
1142.38034,0.03645
1140.89055,0.04367
1139.40076,0.07104
1137.91097,0.09539
1136.42118,0.08258
1134.93140,0.09113
1133.44161,0.09971
1131.95182,0.12355
1130.46203,0.11451
1128.97224,0.11829
1127.48245,0.12637
1125.99266,0.12594
1124.50288,0.11456
1123.01309,0.10870
1121.52330,0.10286
1120.03351,0.14826
1118.54372,0.12663
1117.05393,0.16538
1115.56415,0.17001
1114.07436,0.20088
1112.58457,0.19582
1111.09478,0.19078
1109.60499,0.25039
1108.11520,0.29783
1106.62542,0.36542
1105.13563,0.36963
1103.64584,0.34522
1102.15605,0.40923
1100.66626,0.43120
1099.17647,0.45320
1097.68668,0.43134
1096.19690,0.51375
1094.70711,0.58215
1093.21732,0.59451
1091.72753,0.62945
1090.23774,0.61412
1088.74795,0.59882
1087.25817,0.61372
1085.76838,0.62804
1084.27859,0.68445
1082.78880,0.70736
1081.29901,0.73090
1079.80922,0.71729
1078.31943,0.73631
1076.82965,0.75537
1075.33986,0.74062
1073.85007,0.75149
1072.36028,0.70449
1070.87049,0.70018
1069.38070,0.65445
1067.89092,0.67001
1066.40113,0.68559
1064.91134,0.63506
1063.42155,0.58213
1061.93176,0.54933
1060.44197,0.48669
1058.95219,0.46066
1057.46240,0.44288
1055.97261,0.42512
1054.48282,0.46744
1052.99303,0.37873
1051.50324,0.37233
1050.01345,0.34280
1048.52367,0.35901
1047.03388,0.34630
1045.54409,0.33361
1044.05430,0.28407
1042.56451,0.23761
1041.07472,0.27529
1039.58494,0.25204
1038.09515,0.26052
1036.60536,0.26049
1035.11557,0.26049
1033.62578,0.23979
1032.13599,0.24350
1030.64620,0.21310
1029.15642,0.24124
1027.66663,0.23315
1026.17684,0.22508
1024.68705,0.24538
1023.19726,0.24864
1021.70747,0.28180
1020.21769,0.29304
1018.72790,0.29699
1017.23811,0.30859
1015.74832,0.32022
1014.25853,0.41752
1012.76874,0.53069
1011.27896,0.65243
1009.78917,0.67483
1008.29938,0.73200
1006.80959,0.77793
1005.31980,0.82388
1003.83001,0.90430
1002.34022,0.97377
1000.85044,1.01279
999.36065,1.09268
997.87086,1.12658
996.38107,1.16050
994.89128,1.29472
993.40149,1.38265
991.91171,1.39806
990.42192,1.46348
988.93213,1.57709
987.44234,1.58740
985.95255,1.59773
984.46276,1.58158
982.97297,1.51669
981.48319,1.47987
979.99340,1.47660
978.50361,1.44501
977.01382,1.41345
975.52403,1.49072
974.03424,1.41136
972.54446,1.39299
971.05467,1.32831
969.56488,1.33194
968.07509,1.30602
966.58530,1.28014
965.09551,1.20277
963.60573,1.14676
962.11594,1.14747
960.62615,1.12932
959.13636,1.14014
957.64657,1.15099
956.15678,1.06586
954.66699,0.96795
953.17721,0.90299
951.68742,0.85208
950.19763,0.89872
948.70784,0.94540
947.21805,0.96284
945.72826,0.99311
944.23848,0.95878
942.74869,0.93546
941.25890,0.93229
939.76911,0.93401
938.27932,0.93577
936.78953,0.90097
935.29974,0.92228
933.80996,0.94484
932.32017,0.87416
930.83038,0.89739
929.34059,0.92064
927.85080,0.98354
926.36101,1.01111
924.87123,1.05699
923.38144,1.12851
921.89165,1.12720
920.40186,1.12593
918.91207,1.19082
917.42228,1.28500
915.93250,1.27740
914.44271,1.34664
912.95292,1.43450
911.46313,1.52238
909.97334,1.60938
908.48355,1.64154
906.99376,1.72128
905.50398,1.75654
904.01419,1.74977
902.52440,1.74303
901.03461,1.76984
899.54482,1.75705
898.05503,1.84488
896.56525,1.90590
895.07546,1.95294
893.58567,2.00000
892.09588,1.88982
890.60609,1.77235
889.11630,1.68721
887.62651,1.63258
886.13673,1.60450
884.64694,1.57644
883.15715,1.56090
881.66736,1.46249
880.17757,1.32815
878.68778,1.27734
877.19800,1.22655
875.70821,1.12398
874.21842,1.06167
872.72863,0.93234
871.23884,0.82070
869.74905,0.79139
868.25927,0.76211
866.76948,0.64812
865.27969,0.62010
863.78990,0.56286
862.30011,0.50503
860.81032,0.50240
859.32053,0.49979
857.83075,0.44570
856.34096,0.41297
854.85117,0.35833
853.36138,0.29700
851.87159,0.29606
850.38180,0.29514
848.89202,0.22353
847.40223,0.19401
845.91244,0.19988
844.42265,0.17712
842.93286,0.15439
841.44307,0.12254
839.95329,0.10901
838.46350,0.09185
836.97371,0.09300
835.48392,0.09417
833.99413,0.09538
832.50434,0.05333
831.01455,0.07105
829.52477,0.07233
828.03498,0.07121
826.54519,0.05700
825.05540,0.04282
823.56561,0.06311
822.07582,0.03040
820.58604,0.02697
819.09625,0.01717
817.60646,0.00739
816.11667,0.03186
814.62688,0.06001
813.13709,0.06990
811.64730,0.01337
810.15752,0.01935
808.66773,0.02536
807.17794,0.03475
805.68815,0.01491
804.19836,0.05117
802.70857,0.06186
801.21879,0.07257
799.72900,0.09795
798.23921,0.10872
796.74942,0.14694
795.25963,0.14131
793.76984,0.13570
792.28006,0.18072
790.79027,0.17821
789.30048,0.20804
787.81069,0.21534
786.32090,0.21291
784.83111,0.21052
783.34132,0.26240
781.85154,0.25762
780.36175,0.29492
778.87196,0.30330
777.38217,0.31170
775.89238,0.33446
774.40259,0.35359
772.91281,0.37457
771.42302,0.37302
769.93323,0.37150
768.44344,0.36087
766.95365,0.38623
765.46386,0.31347
763.97407,0.29011
762.48429,0.27806
760.99450,0.26604
759.50471,0.22143
758.01492,0.20855
756.52513,0.17679
755.03534,0.15512
753.54556,0.13348
752.05577,0.11522
750.56598,0.11283
749.07619,0.07268
747.58640,0.05724
746.09661,0.04183
744.60683,0.04503
743.11704,0.03303
741.62725,0.03507
740.13746,0.03379
738.64767,0.03253
737.15788,0.04624
735.66809,0.01791
734.17831,0.02496
732.68852,0.03083
731.19873,0.03672
729.70894,0.07494
728.21915,0.01627
726.72936,0.03687
725.23958,0.05810
723.74979,0.03273
722.26000,0.00739
720.77021,0.01526
719.28042,0.03961
717.79063,0.02314
716.30084,0.03505
714.81106,0.04699
713.32127,0.02146
711.83148,0.05996
710.34169,0.05522
708.85190,0.05964
707.36211,0.06409
705.87233,0.04479
704.38254,0.01029
702.89275,0.05078
701.40296,0.03705
699.91317,0.02335
698.42338,0.07063
696.93360,0.07649
695.44381,0.10188
693.95402,0.10505
692.46423,0.10825
690.97444,0.07764
689.48465,0.04828
687.99486,0.05369
686.50508,0.05212
685.01529,0.05057
683.52550,0.09142
682.03571,0.03537
680.54592,0.00739
679.05613,0.03694
677.56635,0.06651
676.07656,0.07996
674.58677,0.02821
673.09698,0.04050
671.60719,0.05250
670.11740,0.06454
668.62761,0.03179
667.13783,0.05455
665.64804,0.05934
664.15825,0.06417
662.66846,0.05531
661.17867,0.02270
659.68888,0.04010
658.19910,0.03467
656.70931,0.02927
655.21952,0.01688
653.72973,0.02891
652.23994,0.05498
650.75015,0.04603
649.26037,0.03710
647.77058,0.04253
646.28079,0.09249
644.79100,0.07663
643.30121,0.06842
641.81142,0.06024
640.32163,0.05423
638.83185,0.00739
637.34206,0.02150
635.85227,0.03076
634.36248,0.04004
632.87269,0.03594
631.38290,0.04345
629.89312,0.02905
628.40333,0.01558
626.91354,0.00214
625.42375,0.02341
623.93396,0.00997
622.44417,0.02490
620.95438,0.03985
619.46460,0.05209
617.97481,0.02839
616.48502,0.02056
614.99523,0.03319
613.50544,0.04584
612.01565,0.03566
610.52587,0.04196
609.03608,0.03183
607.54629,0.03789
606.05650,0.04397
604.56671,0.04307
603.07692,0.05072
601.58714,0.05170
600.09735,0.05271
598.60756,0.03912
597.11777,0.03835
595.62798,0.01444
594.13819,0.04848
592.64840,0.08253
591.15862,0.11967
589.66883,0.09770
588.17904,0.12940
586.68925,0.13736
585.19946,0.14534
583.70967,0.13750
582.21989,0.18577
580.73010,0.16823
579.24031,0.15072
577.75052,0.19541
576.26073,0.22794
574.77094,0.23489
573.28115,0.27601
571.79137,0.31715
570.30158,0.36076
568.81179,0.39464
567.32200,0.43007
565.83221,0.46553
564.34242,0.50559
562.85264,0.50727
561.36285,0.59371
559.87306,0.59057
558.38327,0.58746
556.89348,0.63984
555.40369,0.66055
553.91391,0.68038
552.42412,0.70024
550.93433,0.71554
549.44454,0.74307
547.95475,0.82000
546.46496,0.82320
544.97517,0.82642
543.48539,0.90100
541.99560,0.90793
540.50581,0.90088
539.01602,0.89385
537.52623,0.93805
536.03644,0.96277
534.54666,0.98630
533.05687,1.01352
531.56708,1.04076
530.07729,0.93453
528.58750,0.92525
527.09771,0.88643
525.60792,0.84765
524.11814,0.80126
522.62835,0.78600
521.13856,0.72199
519.64877,0.70525
518.15898,0.68854
516.66919,0.67522
515.17941,0.65886
513.68962,0.62608
512.19983,0.59333
510.71004,0.56121
509.22025,0.48523
507.73046,0.48303
506.24068,0.48269
504.75089,0.48238
503.26110,0.39431
501.77131,0.27519
500.28152,0.26764
498.79173,0.26012
497.30194,0.23129
495.81216,0.17811
494.32237,0.18164
492.83258,0.18520
491.34279,0.12600
489.85300,0.17839
488.36321,0.18568
486.87343,0.14882
485.38364,0.11198
483.89385,0.08644
482.40406,0.03045
480.91427,0.05038
479.42448,0.07034
477.93469,0.07600
476.44491,0.06705
474.95512,0.06576
473.46533,0.06449
471.97554,0.04343
470.48575,0.10836
468.99596,0.06053
467.50618,0.07278
466.01639,0.08506
464.52660,0.05500
463.03681,0.01887
461.54702,0.05530
460.05723,0.09176
458.56745,0.15751
457.07766,0.16050
455.58787,0.15529
454.09808,0.15010
452.60829,0.18182
451.11850,0.17334
449.62871,0.19048
448.13893,0.20766
446.64914,0.26509
445.15935,0.31523
443.66956,0.35869
442.17977,0.34062
440.68998,0.32257
439.20020,0.44353
437.71041,0.44931
436.22062,0.46060
434.73083,0.47192
433.24104,0.54179
431.75125,0.65374
430.26146,0.66057
428.77168,0.66742
427.28189,0.68192
425.79210,0.75619
424.30231,0.77288
422.81252,0.78960
421.32273,0.96087
419.83295,0.98831
418.34316,0.97219
416.85337,0.95609
415.36358,0.83792
413.87379,0.74173
412.38400,0.74126
410.89422,0.74082
409.40443,0.85439
407.91464,0.83938
406.42485,0.80062
404.93506,0.80333
403.44527,0.80607
401.95548,0.79421
400.46570,0.79152
398.97591,0.78551
397.48612,0.77952
395.99633,0.77813
394.50654,0.71764
393.01675,0.73093
391.52697,0.74425
390.03718,0.72103
388.54739,0.80694
387.05760,0.77554
385.56781,0.74416
384.07802,0.75152
382.58824,0.74794
381.09845,0.72945
379.60866,0.71098
378.11887,0.68066
376.62908,0.62110
375.13929,0.58656
373.64950,0.55205
372.15972,0.45965
370.66993,0.44288
369.18014,0.40418
367.69035,0.36551
366.20056,0.36649
364.71077,0.25716
363.22099,0.24021
361.73120,0.22329
360.24141,0.20974
358.75162,0.17489
357.26183,0.19737
355.77204,0.21987
354.28225,0.18084
352.79247,0.14731
351.30268,0.13424
349.81289,0.12119
348.32310,0.05970
346.83331,0.00739
345.34352,0.01866
343.85374,0.02995
342.36395,0.05376
340.87416,0.06602
339.38437,0.05545
337.89458,0.04490
336.40479,0.07553
334.91501,0.07388
333.42522,0.06067
331.93543,0.04749
330.44564,0.01605
328.95585,0.04254
327.46606,0.03402
325.97627,0.02551
324.48649,0.09389
322.99670,0.06902
321.50691,0.04815
320.01712,0.02730
318.52733,0.00739
317.03754,0.01290
315.54776,0.02119
314.05797,0.02950
312.56818,0.01620
311.07839,0.04437
309.58860,0.02625
308.09881,0.00815
306.60902,0.05103
305.11924,0.03177
303.62945,0.02473
302.13966,0.01361
300.64987,0.00739
299.16008,0.00739
