1778.52000,0.11424
1777.03021,0.00308
1775.54042,0.00084
1774.05063,0.12812
1772.56085,0.07002
1771.07106,0.05904
1769.58127,0.13343
1768.09148,0.09013
1766.60169,0.02332
1765.11190,0.06543
1763.62212,0.08991
1762.13233,0.05262
1760.64254,0.07422
1759.15275,0.03993
1757.66296,0.07335
1756.17317,0.06561
1754.68339,0.04023
1753.19360,0.06786
1751.70381,0.02784
1750.21402,0.05552
1748.72423,0.00084
1747.23444,0.03074
1745.74465,0.07538
1744.25487,0.09063
1742.76508,0.04999
1741.27529,0.01232
1739.78550,0.06002
1738.29571,0.06656
1736.80592,0.09961
1735.31614,0.08266
1733.82635,0.10694
1732.33656,0.09299
1730.84677,0.07612
1729.35698,0.16229
1727.86719,0.09840
1726.37740,0.02865
1724.88762,0.05605
1723.39783,0.03639
1721.90804,0.08445
1720.41825,0.07956
1718.92846,0.06882
1717.43867,0.07283
1715.94889,0.04154
1714.45910,0.08386
1712.96931,0.12915
1711.47952,0.00084
1709.98973,0.11386
1708.49994,0.08859
1707.01016,0.08101
1705.52037,0.07346
1704.03058,0.11303
1702.54079,0.09671
1701.05100,0.09514
1699.56121,0.13773
1698.07142,0.17742
1696.58164,0.10824
1695.09185,0.10384
1693.60206,0.09653
1692.11227,0.11573
1690.62248,0.09376
1689.13269,0.18953
1687.64291,0.06462
1686.15312,0.20166
1684.66333,0.12977
1683.17354,0.06969
1681.68375,0.17444
1680.19396,0.17622
1678.70417,0.21334
1677.21439,0.14160
1675.72460,0.21116
1674.23481,0.09239
1672.74502,0.17378
1671.25523,0.04918
1669.76544,0.08060
1668.27566,0.11793
1666.78587,0.18177
1665.29608,0.08673
1663.80629,0.13886
1662.31650,0.18513
1660.82671,0.16669
1659.33693,0.14828
1657.84714,0.07987
1656.35735,0.10860
1654.86756,0.15797
1653.37777,0.08081
1651.88798,0.09198
1650.39819,0.06197
1648.90841,0.08497
1647.41862,0.12860
1645.92883,0.10309
1644.43904,0.07761
1642.94925,0.08601
1641.45946,0.07384
1639.96968,0.05875
1638.47989,0.09667
1636.99010,0.12873
1635.50031,0.01367
1634.01052,0.04873
1632.52073,0.17211
1631.03094,0.12777
1629.54116,0.14821
1628.05137,0.14513
1626.56158,0.13619
1625.07179,0.13905
1623.58200,0.12723
1622.09221,0.06835
1620.60243,0.12134
1619.11264,0.08901
1617.62285,0.07436
1616.13306,0.14803
1614.64327,0.13344
1613.15348,0.13066
1611.66370,0.10436
1610.17391,0.03394
1608.68412,0.04890
1607.19433,0.10215
1605.70454,0.13188
1604.21475,0.12486
1602.72496,0.11786
1601.23518,0.01819
1599.74539,0.08925
1598.25560,0.09558
1596.76581,0.15492
1595.27602,0.03183
1593.78623,0.06474
1592.29645,0.07413
1590.80666,0.08945
1589.31687,0.02533
1587.82708,0.05247
1586.33729,0.09730
1584.84750,0.08036
1583.35771,0.11936
1581.86793,0.10836
1580.37814,0.10916
1578.88835,0.13943
1577.39856,0.04611
1575.90877,0.09115
1574.41898,0.00084
1572.92920,0.12899
1571.43941,0.10413
1569.94962,0.13081
1568.45983,0.15752
1566.97004,0.13863
1565.48025,0.09624
1563.99047,0.09802
1562.50068,0.12337
1561.01089,0.06341
1559.52110,0.05939
1558.03131,0.09071
1556.54152,0.11618
1555.05173,0.19760
1553.56195,0.06715
1552.07216,0.06916
1550.58237,0.10652
1549.09258,0.07328
1547.60279,0.27845
1546.11300,0.40713
1544.62322,0.30923
1543.13343,0.34379
1541.64364,0.15177
1540.15385,0.14519
1538.66406,0.13864
1537.17427,0.08503
1535.68448,0.12269
1534.19470,0.13388
1532.70491,0.18631
1531.21512,0.07690
1529.72533,0.16176
1528.23554,0.06124
1526.74575,0.11672
1525.25597,0.11633
1523.76618,0.13361
1522.27639,0.00084
1520.78660,0.09450
1519.29681,0.08519
1517.80702,0.09651
1516.31724,0.11080
1514.82745,0.02506
1513.33766,0.04971
1511.84787,0.07439
1510.35808,0.15355
1508.86829,0.09441
1507.37850,0.05591
1505.88872,0.08217
1504.39893,0.10847
1502.90914,0.02003
1501.41935,0.06110
1499.92956,0.09043
1498.43977,0.06093
1496.94999,0.12857
1495.46020,0.02261
1493.97041,0.08149
1492.48062,0.11097
1490.99083,0.01981
1489.50104,0.04935
1488.01125,0.06714
1486.52147,0.08496
1485.03168,0.14696
1483.54189,0.20310
1482.05210,0.11212
1480.56231,0.23601
1479.07252,0.21866
1477.58274,0.29257
1476.09295,0.19583
1474.60316,0.21094
1473.11337,0.31732
1471.62358,0.32366
1470.13379,0.20937
1468.64401,0.28052
1467.15422,0.29872
1465.66443,0.26546
1464.17464,0.23222
1462.68485,0.25345
1461.19506,0.17465
1459.70527,0.21655
1458.21549,0.09661
1456.72570,0.13268
1455.23591,0.14523
1453.74612,0.10189
1452.25633,0.15865
1450.76654,0.13303
1449.27676,0.13393
1447.78697,0.14663
1446.29718,0.09756
1444.80739,0.10149
1443.31760,0.10545
1441.82781,0.10355
1440.33802,0.04576
1438.84824,0.20285
1437.35845,0.07154
1435.86866,0.07859
1434.37887,0.09744
1432.88908,0.06041
1431.39929,0.07343
1429.90951,0.15417
1428.41972,0.01716
1426.92993,0.19802
1425.44014,0.23176
1423.95035,0.18460
1422.46056,0.13747
1420.97078,0.08006
1419.48099,0.22576
1417.99120,0.15075
1416.50141,0.16701
1415.01162,0.12444
1413.52183,0.27025
1412.03204,0.15711
1410.54226,0.19703
1409.05247,0.28407
1407.56268,0.13864
1406.07289,0.28165
1404.58310,0.25400
1403.09331,0.22638
1401.60353,0.28413
1400.11374,0.21243
1398.62395,0.18784
1397.13416,0.26334
1395.64437,0.32121
1394.15458,0.31731
1392.66479,0.32815
1391.17501,0.28017
1389.68522,0.27341
1388.19543,0.29023
1386.70564,0.27618
1385.21585,0.26215
1383.72606,0.20548
1382.23628,0.25773
1380.74649,0.30118
1379.25670,0.25637
1377.76691,0.34991
1376.27712,0.32576
1374.78733,0.30753
1373.29755,0.50122
1371.80776,0.49776
1370.31797,0.62971
1368.82818,0.69546
1367.33839,0.76125
1365.84860,0.94038
1364.35881,1.10481
1362.86903,1.22219
1361.37924,1.25719
1359.88945,1.31872
1358.39966,1.36849
1356.90987,1.01511
1355.42008,1.07083
1353.93030,1.29728
1352.44051,1.26035
1350.95072,1.22346
1349.46093,1.04975
1347.97114,0.78483
1346.48135,0.58469
1344.99156,0.55821
1343.50178,0.40816
1342.01199,0.41412
1340.52220,0.33476
1339.03241,0.36431
1337.54262,0.22615
1336.05283,0.21604
1334.56305,0.20595
1333.07326,0.26506
1331.58347,0.13290
1330.09368,0.20090
1328.60389,0.14826
1327.11410,0.13685
1325.62432,0.20787
1324.13453,0.16121
1322.64474,0.02040
1321.15495,0.09445
1319.66516,0.06406
1318.17537,0.03370
1316.68558,0.12844
1315.19580,0.12904
1313.70601,0.10907
1312.21622,0.00084
1310.72643,0.08543
1309.23664,0.07882
1307.74685,0.06635
1306.25707,0.17457
1304.76728,0.14304
1303.27749,0.11153
1301.78770,0.04620
1300.29791,0.11923
1298.80812,0.03336
1297.31834,0.10645
1295.82855,0.03241
1294.33876,0.06435
1292.84897,0.03747
1291.35918,0.09890
1289.86939,0.05588
1288.37960,0.01289
1286.88982,0.00084
1285.40003,0.00929
1283.91024,0.06487
1282.42045,0.10282
1280.93066,0.09371
1279.44087,0.06108
1277.95109,0.06380
1276.46130,0.12836
1274.97151,0.10171
1273.48172,0.07509
1271.99193,0.10147
1270.50214,0.09550
1269.01235,0.07486
1267.52257,0.09250
1266.03278,0.09251
1264.54299,0.08961
1263.05320,0.21623
1261.56341,0.17660
1260.07362,0.13700
1258.58384,0.17542
1257.09405,0.11086
1255.60426,0.06693
1254.11447,0.10250
1252.62468,0.06746
1251.13489,0.04127
1249.64511,0.09164
1248.15532,0.10378
1246.66553,0.10123
1245.17574,0.09871
1243.68595,0.01087
1242.19616,0.11141
1240.70637,0.07367
1239.21659,0.04478
1237.72680,0.07184
1236.23701,0.02829
1234.74722,0.06424
1233.25743,0.03252
1231.76764,0.00084
1230.27786,0.04802
1228.78807,0.06874
1227.29828,0.06595
1225.80849,0.09262
1224.31870,0.10754
1222.82891,0.06658
1221.33912,0.06685
1219.84934,0.05979
1218.35955,0.05276
1216.86976,0.04723
1215.37997,0.02407
1213.89018,0.07158
1212.40039,0.07202
1210.91061,0.11664
1209.42082,0.09655
1207.93103,0.10738
1206.44124,0.11824
1204.95145,0.07175
1203.46166,0.06943
1201.97188,0.02593
1200.48209,0.00307
1198.99230,0.00084
1197.50251,0.07532
1196.01272,0.11451
1194.52293,0.10959
1193.03314,0.10470
1191.54336,0.09984
1190.05357,0.00084
1188.56378,0.05868
1187.07399,0.11950
1185.58420,0.02142
1184.09441,0.07936
1182.60463,0.05933
1181.11484,0.03933
1179.62505,0.07087
1178.13526,0.03474
1176.64547,0.12225
1175.15568,0.12444
1173.66589,0.06781
1172.17611,0.13186
1170.68632,0.09294
1169.19653,0.05405
1167.70674,0.00930
1166.21695,0.06759
1164.72716,0.05821
1163.23738,0.06947
1161.74759,0.06604
1160.25780,0.00084
1158.76801,0.02317
1157.27822,0.04554
1155.78843,0.00908
1154.29865,0.08154
1152.80886,0.09516
1151.31907,0.08822
1149.82928,0.08719
1148.33949,0.05381
1146.84970,0.09404
1145.35991,0.13430
1143.87013,0.10396
1142.38034,0.14723
1140.89055,0.02865
1139.40076,0.05431
1137.91097,0.09766
1136.42118,0.07924
1134.93140,0.07115
1133.44161,0.06308
1131.95182,0.08889
1130.46203,0.09119
1128.97224,0.09940
1127.48245,0.04878
1125.99266,0.05705
1124.50288,0.10360
1123.01309,0.11929
1121.52330,0.13500
1120.03351,0.13456
1118.54372,0.13415
1117.05393,0.19557
1115.56415,0.26290
1114.07436,0.21843
1112.58457,0.18576
1111.09478,0.15312
1109.60499,0.20586
1108.11520,0.27923
1106.62542,0.29965
1105.13563,0.29067
1103.64584,0.36707
1102.15605,0.42290
1100.66626,0.37428
1099.17647,0.32569
1097.68668,0.44929
1096.19690,0.42283
1094.70711,0.51118
1093.21732,0.56424
1091.72753,0.50844
1090.23774,0.56303
1088.74795,0.61765
1087.25817,0.65905
1085.76838,0.62103
1084.27859,0.68015
1082.78880,0.66573
1081.29901,0.61307
1079.80922,0.70760
1078.31943,0.67414
1076.82965,0.64070
1075.33986,0.65880
1073.85007,0.75050
1072.36028,0.60679
1070.87049,0.57494
1069.38070,0.55195
1067.89092,0.49957
1066.40113,0.44721
1064.91134,0.43608
1063.42155,0.45735
1061.93176,0.28148
1060.44197,0.35284
1058.95219,0.21234
1057.46240,0.30436
1055.97261,0.39642
1054.48282,0.28249
1052.99303,0.32457
1051.50324,0.25190
1050.01345,0.22930
1048.52367,0.25381
1047.03388,0.20772
1045.54409,0.16165
1044.05430,0.25100
1042.56451,0.22266
1041.07472,0.13254
1039.58494,0.07482
1038.09515,0.08188
1036.60536,0.12428
1035.11557,0.16672
1033.62578,0.03260
1032.13599,0.09569
1030.64620,0.02638
1029.15642,0.14545
1027.66663,0.14536
1026.17684,0.14529
1024.68705,0.06138
1023.19726,0.15408
1021.70747,0.11438
1020.21769,0.18065
1018.72790,0.25283
1017.23811,0.31622
1015.74832,0.37964
1014.25853,0.26650
1012.76874,0.38001
1011.27896,0.44645
1009.78917,0.53353
1008.29938,0.65007
1006.80959,0.62096
1005.31980,0.59187
1003.83001,0.77913
1002.34022,0.92816
1000.85044,1.05073
999.36065,1.03206
997.87086,1.22974
996.38107,1.42744
994.89128,1.47950
993.40149,1.59927
991.91171,1.71024
990.42192,1.85362
988.93213,1.81162
987.44234,1.85940
985.95255,1.90722
984.46276,1.83588
982.97297,2.00000
981.48319,1.74919
979.99340,1.73679
978.50361,1.71118
977.01382,1.68560
975.52403,1.61738
974.03424,1.75225
972.54446,1.54281
971.05467,1.46879
969.56488,1.47426
968.07509,1.46798
966.58530,1.46174
965.09551,1.27305
963.60573,1.30218
962.11594,1.32545
960.62615,1.13686
959.13636,1.13959
957.64657,1.14235
956.15678,1.05684
954.66699,1.07438
953.17721,0.98599
951.68742,0.91529
950.19763,0.90937
948.70784,0.90347
947.21805,0.81521
945.72826,0.70048
944.23848,0.75648
942.74869,0.73598
941.25890,0.70375
939.76911,0.64800
938.27932,0.59228
936.78953,0.63077
935.29974,0.57805
933.80996,0.68723
932.32017,0.76700
930.83038,0.73939
929.34059,0.71180
927.85080,0.77695
926.36101,0.79504
924.87123,0.90439
923.38144,0.74891
921.89165,0.77003
920.40186,0.79118
918.91207,0.85062
917.42228,0.86594
915.93250,0.96664
914.44271,0.91728
912.95292,1.00626
911.46313,1.09528
909.97334,1.00480
908.48355,0.92318
906.99376,1.13589
905.50398,1.09553
904.01419,1.17734
902.52440,1.25917
901.03461,1.26305
899.54482,1.41116
898.05503,1.42392
896.56525,1.35725
895.07546,1.33476
893.58567,1.31229
892.09588,1.33106
890.60609,1.20270
889.11630,1.20092
887.62651,1.14620
886.13673,1.10917
884.64694,1.07217
883.15715,1.11759
881.66736,1.03945
880.17757,0.94073
878.68778,0.96564
877.19800,0.99059
875.70821,0.94199
874.21842,0.91402
872.72863,0.85959
871.23884,0.64627
869.74905,0.68019
868.25927,0.71414
866.76948,0.66278
865.27969,0.51138
863.78990,0.59250
862.30011,0.52063
860.81032,0.52235
859.32053,0.52410
857.83075,0.38462
856.34096,0.30403
854.85117,0.36473
853.36138,0.43429
851.87159,0.37292
850.38180,0.31157
848.89202,0.25762
847.40223,0.25078
845.91244,0.27340
844.42265,0.23277
842.93286,0.19217
841.44307,0.06773
839.95329,0.03161
838.46350,0.14561
836.97371,0.02714
835.48392,0.08086
833.99413,0.13462
832.50434,0.13102
831.01455,0.01855
829.52477,0.08269
828.03498,0.13510
826.54519,0.14044
825.05540,0.14581
823.56561,0.09824
822.07582,0.08896
820.58604,0.02084
819.09625,0.02339
817.60646,0.02596
816.11667,0.14335
814.62688,0.05180
813.13709,0.03387
811.64730,0.02773
810.15752,0.01427
808.66773,0.00084
807.17794,0.07752
805.68815,0.15717
804.19836,0.06322
802.70857,0.11791
801.21879,0.17264
799.72900,0.05228
798.23921,0.10265
796.74942,0.11774
795.25963,0.14757
793.76984,0.17742
792.28006,0.25734
790.79027,0.25194
789.30048,0.22303
787.81069,0.26183
786.32090,0.25063
784.83111,0.23947
783.34132,0.32250
781.85154,0.29373
780.36175,0.30914
778.87196,0.34076
777.38217,0.37242
775.89238,0.36142
774.40259,0.41815
772.91281,0.43665
771.42302,0.39926
769.93323,0.36189
768.44344,0.46288
766.95365,0.29314
765.46386,0.46777
763.97407,0.32457
762.48429,0.32856
760.99450,0.33258
759.50471,0.40431
758.01492,0.27890
756.52513,0.21531
755.03534,0.20473
753.54556,0.19418
752.05577,0.14834
750.56598,0.12902
749.07619,0.00084
747.58640,0.00042
746.09661,0.00000
744.60683,0.04633
743.11704,0.12506
741.62725,0.05666
740.13746,0.06187
738.64767,0.06712
737.15788,0.11948
735.66809,0.02471
734.17831,0.03887
732.68852,0.04570
731.19873,0.05256
729.70894,0.01678
728.21915,0.02811
726.72936,0.02476
725.23958,0.00084
723.74979,0.00306
722.26000,0.00532
720.77021,0.09295
719.28042,0.06290
717.79063,0.02992
716.30084,0.03818
714.81106,0.04647
713.32127,0.02536
711.83148,0.03960
710.34169,0.09212
708.85190,0.06227
707.36211,0.03245
705.87233,0.01148
704.38254,0.03763
702.89275,0.03144
701.40296,0.05913
699.91317,0.08684
698.42338,0.06896
696.93360,0.28950
695.44381,0.44238
693.95402,0.40399
692.46423,0.36564
690.97444,0.11836
689.48465,0.05946
687.99486,0.01236
686.50508,0.03151
685.01529,0.05068
683.52550,0.08313
682.03571,0.00084
680.54592,0.02709
679.05613,0.05632
677.56635,0.08558
676.07656,0.20611
674.58677,0.06179
673.09698,0.08819
671.60719,0.13964
670.11740,0.19112
668.62761,0.13227
667.13783,0.15879
665.64804,0.11471
664.15825,0.07066
662.66846,0.07373
661.17867,0.04445
659.68888,0.07112
658.19910,0.09782
656.70931,0.12455
655.21952,0.11305
653.72973,0.14278
652.23994,0.17842
650.75015,0.17584
649.26037,0.17328
647.77058,0.27082
646.28079,0.21240
644.79100,0.28057
643.30121,0.25753
641.81142,0.23452
640.32163,0.22331
638.83185,0.17388
637.34206,0.05089
635.85227,0.14278
634.36248,0.23469
632.87269,0.12652
631.38290,0.19200
629.89312,0.14863
628.40333,0.14942
626.91354,0.15025
625.42375,0.22469
623.93396,0.15788
622.44417,0.19412
620.95438,0.23038
619.46460,0.19310
617.97481,0.11758
616.48502,0.08919
614.99523,0.08584
613.50544,0.08252
612.01565,0.14544
610.52587,0.16131
609.03608,0.15072
607.54629,0.21079
606.05650,0.27088
604.56671,0.33396
603.07692,0.22931
601.58714,0.21151
600.09735,0.19373
598.60756,0.14509
597.11777,0.06704
595.62798,0.10380
594.13819,0.05231
592.64840,0.00084
591.15862,0.08081
589.66883,0.14315
588.17904,0.18786
586.68925,0.21200
585.19946,0.23617
583.70967,0.25742
582.21989,0.42880
580.73010,0.39714
579.24031,0.36551
577.75052,0.48106
576.26073,0.28174
574.77094,0.39735
573.28115,0.42470
571.79137,0.45207
570.30158,0.45299
568.81179,0.61875
567.32200,0.62414
565.83221,0.62957
564.34242,0.64826
562.85264,0.73761
561.36285,0.74165
559.87306,0.81635
558.38327,0.89108
556.89348,0.63623
555.40369,0.80519
553.91391,0.84763
552.42412,0.89011
550.93433,0.91201
549.44454,0.90451
547.95475,0.91470
546.46496,0.90285
544.97517,0.89102
543.48539,0.95722
541.99560,0.94398
540.50581,0.98374
539.01602,1.02354
537.52623,1.13988
536.03644,1.00021
534.54666,0.99595
533.05687,1.03734
531.56708,1.07875
530.07729,1.01572
528.58750,0.76436
527.09771,0.83823
525.60792,0.91214
524.11814,0.82568
522.62835,0.72748
521.13856,0.77057
519.64877,0.70038
518.15898,0.63022
516.66919,0.59394
515.17941,0.61949
513.68962,0.62300
512.19983,0.62654
510.71004,0.71103
509.22025,0.55424
507.73046,0.48576
506.24068,0.43644
504.75089,0.38715
503.26110,0.33641
501.77131,0.28277
500.28152,0.29684
498.79173,0.31094
497.30194,0.24561
495.81216,0.26860
494.32237,0.22246
492.83258,0.17634
491.34279,0.25534
489.85300,0.24018
488.36321,0.24272
486.87343,0.22910
485.38364,0.21550
483.89385,0.26521
482.40406,0.24432
480.91427,0.20139
479.42448,0.15848
477.93469,0.12296
476.44491,0.19636
474.95512,0.18445
473.46533,0.17256
471.97554,0.13716
470.48575,0.10768
468.99596,0.18122
467.50618,0.19300
466.01639,0.20480
464.52660,0.13717
463.03681,0.10784
461.54702,0.13297
460.05723,0.15814
458.56745,0.20540
457.07766,0.35865
455.58787,0.25147
454.09808,0.14431
452.60829,0.26233
451.11850,0.15671
449.62871,0.20121
448.13893,0.24574
446.64914,0.37270
445.15935,0.38197
443.66956,0.45013
442.17977,0.48595
440.68998,0.52180
439.20020,0.51647
437.71041,0.53178
436.22062,0.55006
434.73083,0.56836
433.24104,0.75739
431.75125,0.75221
430.26146,0.80445
428.77168,0.85672
427.28189,0.78100
425.79210,0.87306
424.30231,1.06962
422.81252,1.26621
421.32273,1.67915
419.83295,1.72718
418.34316,1.71491
416.85337,1.70266
415.36358,1.03563
413.87379,0.88072
412.38400,0.82000
410.89422,0.75932
409.40443,1.01062
407.91464,1.03534
406.42485,1.18076
404.93506,1.11430
403.44527,1.04788
401.95548,0.90497
400.46570,0.84449
398.97591,0.92383
397.48612,1.00321
395.99633,0.75446
394.50654,1.04432
393.01675,0.89717
391.52697,0.75005
390.03718,0.73981
388.54739,0.80022
387.05760,0.84154
385.56781,0.88289
384.07802,0.79919
382.58824,0.65372
381.09845,0.63188
379.60866,0.61007
378.11887,0.56769
376.62908,0.49591
375.13929,0.54041
373.64950,0.58494
372.15972,0.37492
370.66993,0.32975
369.18014,0.34935
367.69035,0.36897
366.20056,0.33272
364.71077,0.38183
363.22099,0.39125
361.73120,0.40069
360.24141,0.19975
358.75162,0.21072
357.26183,0.15404
355.77204,0.09738
354.28225,0.18791
352.79247,0.11365
351.30268,0.14832
349.81289,0.18301
348.32310,0.07059
346.83331,0.11123
345.34352,0.15779
343.85374,0.20437
342.36395,0.15681
340.87416,0.27703
339.38437,0.18391
337.89458,0.09082
336.40479,0.16992
334.91501,0.21669
333.42522,0.19137
331.93543,0.16609
330.44564,0.10994
328.95585,0.00084
327.46606,0.02796
325.97627,0.05510
324.48649,0.22943
322.99670,0.20661
321.50691,0.21913
320.01712,0.23168
318.52733,0.17658
317.03754,0.00084
315.54776,0.02276
314.05797,0.04472
312.56818,0.02991
311.07839,0.12109
309.58860,0.07103
308.09881,0.02100
306.60902,0.05634
305.11924,0.14763
303.62945,0.16096
302.13966,0.17432
300.64987,0.00084
299.16008,0.00084
