1778.52000,0.08000
1777.03021,0.16659
1775.54042,0.00000
1774.05063,0.03403
1772.56085,0.02533
1771.07106,0.07915
1769.58127,0.13957
1768.09148,0.01257
1766.60169,0.10264
1765.11190,0.06120
1763.62212,0.07897
1762.13233,0.10335
1760.64254,0.01266
1759.15275,0.10615
1757.66296,0.12075
1756.17317,0.03014
1754.68339,0.09412
1753.19360,0.13181
1751.70381,0.08075
1750.21402,0.04944
1748.72423,0.10037
1747.23444,0.09213
1745.74465,0.13983
1744.25487,0.00668
1742.76508,0.03270
1741.27529,0.03573
1739.78550,0.10455
1738.29571,0.10106
1736.80592,0.14692
1735.31614,0.16978
1733.82635,0.13349
1732.33656,0.09064
1730.84677,0.06426
1729.35698,0.06421
1727.86719,0.10365
1726.37740,0.07407
1724.88762,0.14645
1723.39783,0.09718
1721.90804,0.14660
1720.41825,0.02833
1718.92846,0.02190
1717.43867,0.06153
1715.94889,0.15052
1714.45910,0.12772
1712.96931,0.07536
1711.47952,0.00000
1709.98973,0.08749
1708.49994,0.13226
1707.01016,0.11950
1705.52037,0.10677
1704.03058,0.11216
1702.54079,0.14387
1701.05100,0.12301
1699.56121,0.17451
1698.07142,0.06491
1696.58164,0.12633
1695.09185,0.11872
1693.60206,0.21638
1692.11227,0.15292
1690.62248,0.05660
1689.13269,0.13789
1687.64291,0.14357
1686.15312,0.20190
1684.66333,0.09911
1683.17354,0.14763
1681.68375,0.11724
1680.19396,0.07373
1678.70417,0.08615
1677.21439,0.17752
1675.72460,0.16040
1674.23481,0.09398
1672.74502,0.09007
1671.25523,0.11578
1669.76544,0.13493
1668.27566,0.20674
1666.78587,0.15360
1665.29608,0.19915
1663.80629,0.09017
1662.31650,0.07658
1660.82671,0.15180
1659.33693,0.12182
1657.84714,0.09516
1656.35735,0.08167
1654.86756,0.16358
1653.37777,0.13371
1651.88798,0.12360
1650.39819,0.12338
1648.90841,0.03111
1647.41862,0.11315
1645.92883,0.08177
1644.43904,0.05042
1642.94925,0.04375
1641.45946,0.04040
1639.96968,0.06997
1638.47989,0.16204
1636.99010,0.21139
1635.50031,0.13252
1634.01052,0.09642
1632.52073,0.08337
1631.03094,0.07692
1629.54116,0.09023
1628.05137,0.15618
1626.56158,0.11693
1625.07179,0.14676
1623.58200,0.08455
1622.09221,0.14732
1620.60243,0.00952
1619.11264,0.00000
1617.62285,0.11160
1616.13306,0.14759
1614.64327,0.13756
1613.15348,0.10126
1611.66370,0.11102
1610.17391,0.07149
1608.68412,0.05828
1607.19433,0.08457
1605.70454,0.10431
1604.21475,0.12900
1602.72496,0.15373
1601.23518,0.10119
1599.74539,0.13419
1598.25560,0.05541
1596.76581,0.16410
1595.27602,0.11825
1593.78623,0.08888
1592.29645,0.08584
1590.80666,0.09926
1589.31687,0.06010
1587.82708,0.10976
1586.33729,0.19561
1584.84750,0.13352
1583.35771,0.07473
1581.86793,0.03571
1580.37814,0.00000
1578.88835,0.09115
1577.39856,0.12643
1575.90877,0.08939
1574.41898,0.03264
1572.92920,0.04827
1571.43941,0.04090
1569.94962,0.04836
1568.45983,0.05585
1566.97004,0.10118
1565.48025,0.09721
1563.99047,0.08669
1562.50068,0.06633
1561.01089,0.16110
1559.52110,0.03556
1558.03131,0.15011
1556.54152,0.11342
1555.05173,0.07018
1553.56195,0.14206
1552.07216,0.06599
1550.58237,0.04584
1549.09258,0.08492
1547.60279,0.19308
1546.11300,0.21906
1544.62322,0.22204
1543.13343,0.19546
1541.64364,0.12944
1540.15385,0.09469
1538.66406,0.05996
1537.17427,0.11241
1535.68448,0.17475
1534.19470,0.08585
1532.70491,0.03643
1531.21512,0.05610
1529.72533,0.12841
1528.23554,0.05606
1526.74575,0.04622
1525.25597,0.15807
1523.76618,0.03318
1522.27639,0.04644
1520.78660,0.04657
1519.29681,0.11249
1517.80702,0.11596
1516.31724,0.04382
1514.82745,0.15587
1513.33766,0.16106
1511.84787,0.16628
1510.35808,0.12714
1508.86829,0.09789
1507.37850,0.04893
1505.88872,0.00000
1504.39893,0.08895
1502.90914,0.15491
1501.41935,0.21432
1499.92956,0.10604
1498.43977,0.07671
1496.94999,0.08359
1495.46020,0.14310
1493.97041,0.09741
1492.48062,0.07148
1490.99083,0.09491
1489.50104,0.21043
1488.01125,0.17472
1486.52147,0.13903
1485.03168,0.25135
1483.54189,0.18941
1482.05210,0.26232
1480.56231,0.21688
1479.07252,0.31944
1477.58274,0.31680
1476.09295,0.34378
1474.60316,0.28200
1473.11337,0.26957
1471.62358,0.31636
1470.13379,0.35990
1468.64401,0.27849
1467.15422,0.22671
1465.66443,0.23744
1464.17464,0.24820
1462.68485,0.18334
1461.19506,0.22046
1459.70527,0.13593
1458.21549,0.08431
1456.72570,0.18728
1455.23591,0.14229
1453.74612,0.11049
1452.25633,0.12475
1450.76654,0.13246
1449.27676,0.09086
1447.78697,0.11507
1446.29718,0.04065
1444.80739,0.07806
1443.31760,0.11550
1441.82781,0.07076
1440.33802,0.15100
1438.84824,0.15235
1437.35845,0.11097
1435.86866,0.00386
1434.37887,0.13354
1432.88908,0.04620
1431.39929,0.17594
1429.90951,0.11496
1428.41972,0.09019
1426.92993,0.17726
1425.44014,0.12952
1423.95035,0.16896
1422.46056,0.20842
1420.97078,0.20022
1419.48099,0.19535
1417.99120,0.15432
1416.50141,0.17909
1415.01162,0.20060
1413.52183,0.21227
1412.03204,0.27001
1410.54226,0.27187
1409.05247,0.28034
1407.56268,0.20004
1406.07289,0.22829
1404.58310,0.20724
1403.09331,0.18621
1401.60353,0.26716
1400.11374,0.25934
1398.62395,0.27457
1397.13416,0.27996
1395.64437,0.31827
1394.15458,0.36646
1392.66479,0.34891
1391.17501,0.29851
1389.68522,0.35336
1388.19543,0.28657
1386.70564,0.27078
1385.21585,0.25501
1383.72606,0.31655
1382.23628,0.23013
1380.74649,0.31145
1379.25670,0.31059
1377.76691,0.39854
1376.27712,0.34512
1374.78733,0.43642
1373.29755,0.46526
1371.80776,0.63224
1370.31797,0.70389
1368.82818,0.72788
1367.33839,0.75190
1365.84860,0.86966
1364.35881,1.04007
1362.86903,1.06253
1361.37924,1.21983
1359.88945,1.31140
1358.39966,1.15636
1356.90987,1.11973
1355.42008,1.08641
1353.93030,1.04983
1352.44051,1.04617
1350.95072,1.04253
1349.46093,0.80544
1347.97114,0.76897
1346.48135,0.57797
1344.99156,0.46921
1343.50178,0.50846
1342.01199,0.40961
1340.52220,0.39301
1339.03241,0.32711
1337.54262,0.30069
1336.05283,0.27266
1334.56305,0.24466
1333.07326,0.25778
1331.58347,0.28738
1330.09368,0.19533
1328.60389,0.20196
1327.11410,0.11326
1325.62432,0.11665
1324.13453,0.16941
1322.64474,0.11695
1321.15495,0.09083
1319.66516,0.09270
1318.17537,0.09458
1316.68558,0.11787
1315.19580,0.07213
1313.70601,0.06588
1312.21622,0.09583
1310.72643,0.10278
1309.23664,0.09661
1307.74685,0.12006
1306.25707,0.15669
1304.76728,0.12759
1303.27749,0.09850
1301.78770,0.11548
1300.29791,0.13578
1298.80812,0.10678
1297.31834,0.10740
1295.82855,0.07516
1294.33876,0.11859
1292.84897,0.13574
1291.35918,0.03452
1289.86939,0.05830
1288.37960,0.08210
1286.88982,0.10593
1285.40003,0.05744
1283.91024,0.07145
1282.42045,0.00000
1280.93066,0.04860
1279.44087,0.13998
1277.95109,0.02750
1276.46130,0.13208
1274.97151,0.14955
1273.48172,0.16705
1271.99193,0.07769
1270.50214,0.11662
1269.01235,0.07994
1267.52257,0.07287
1266.03278,0.15792
1264.54299,0.10487
1263.05320,0.13736
1261.56341,0.11232
1260.07362,0.08730
1258.58384,0.19879
1257.09405,0.11628
1255.60426,0.03380
1254.11447,0.21772
1252.62468,0.06623
1251.13489,0.09564
1249.64511,0.16125
1248.15532,0.18743
1246.66553,0.13964
1245.17574,0.09188
1243.68595,0.14444
1242.19616,0.10166
1240.70637,0.07865
1239.21659,0.13129
1237.72680,0.07544
1236.23701,0.03278
1234.74722,0.00000
1233.25743,0.05417
1231.76764,0.10837
1230.27786,0.08039
1228.78807,0.04915
1227.29828,0.03437
1225.80849,0.08868
1224.31870,0.10027
1222.82891,0.05269
1221.33912,0.02815
1219.84934,0.04147
1218.35955,0.05480
1216.86976,0.09941
1215.37997,0.07170
1213.89018,0.09662
1212.40039,0.11171
1210.91061,0.01831
1209.42082,0.04661
1207.93103,0.04534
1206.44124,0.04409
1204.95145,0.01657
1203.46166,0.03511
1201.97188,0.07012
1200.48209,0.11831
1198.99230,0.04485
1197.50251,0.02075
1196.01272,0.10848
1194.52293,0.05813
1193.03314,0.00780
1191.54336,0.01669
1190.05357,0.05192
1188.56378,0.00167
1187.07399,0.07312
1185.58420,0.00978
1184.09441,0.05168
1182.60463,0.04265
1181.11484,0.03364
1179.62505,0.00000
1178.13526,0.10119
1176.64547,0.09390
1175.15568,0.13266
1173.66589,0.10240
1172.17611,0.07874
1170.68632,0.07320
1169.19653,0.06768
1167.70674,0.01779
1166.21695,0.06659
1164.72716,0.08252
1163.23738,0.11164
1161.74759,0.11119
1160.25780,0.10419
1158.76801,0.06597
1157.27822,0.02778
1155.78843,0.08663
1154.29865,0.12249
1152.80886,0.07287
1151.31907,0.13509
1149.82928,0.10526
1148.33949,0.10176
1146.84970,0.13282
1145.35991,0.16391
1143.87013,0.11117
1142.38034,0.14395
1140.89055,0.01562
1139.40076,0.13067
1137.91097,0.06817
1136.42118,0.02543
1134.93140,0.10110
1133.44161,0.17679
1131.95182,0.19004
1130.46203,0.22961
1128.97224,0.06533
1127.48245,0.15100
1125.99266,0.10845
1124.50288,0.27638
1123.01309,0.23224
1121.52330,0.18812
1120.03351,0.16211
1118.54372,0.17560
1117.05393,0.21871
1115.56415,0.26184
1114.07436,0.22608
1112.58457,0.24296
1111.09478,0.25987
1109.60499,0.26365
1108.11520,0.42530
1106.62542,0.42914
1105.13563,0.39354
1103.64584,0.42702
1102.15605,0.51973
1100.66626,0.47928
1099.17647,0.43885
1097.68668,0.41325
1096.19690,0.53566
1094.70711,0.47723
1093.21732,0.60298
1091.72753,0.62682
1090.23774,0.67205
1088.74795,0.71732
1087.25817,0.68862
1085.76838,0.67968
1084.27859,0.75626
1082.78880,0.65859
1081.29901,0.71878
1079.80922,0.86451
1078.31943,0.75705
1076.82965,0.64961
1075.33986,0.75924
1073.85007,0.87548
1072.36028,0.80759
1070.87049,0.73644
1069.38070,0.66202
1067.89092,0.65669
1066.40113,0.65139
1064.91134,0.71846
1063.42155,0.59483
1061.93176,0.51068
1060.44197,0.39039
1058.95219,0.45428
1057.46240,0.45572
1055.97261,0.45718
1054.48282,0.45209
1052.99303,0.37798
1051.50324,0.40254
1050.01345,0.32519
1048.52367,0.38269
1047.03388,0.37445
1045.54409,0.36623
1044.05430,0.30543
1042.56451,0.23479
1041.07472,0.28256
1039.58494,0.21527
1038.09515,0.23678
1036.60536,0.21887
1035.11557,0.20097
1033.62578,0.20613
1032.13599,0.27051
1030.64620,0.18035
1029.15642,0.33357
1027.66663,0.23689
1026.17684,0.14024
1024.68705,0.26065
1023.19726,0.24627
1021.70747,0.25822
1020.21769,0.27348
1018.72790,0.37427
1017.23811,0.35835
1015.74832,0.34245
1014.25853,0.38413
1012.76874,0.48832
1011.27896,0.48402
1009.78917,0.56853
1008.29938,0.70568
1006.80959,0.77545
1005.31980,0.84524
1003.83001,0.96932
1002.34022,1.05068
1000.85044,1.27347
999.36065,1.39763
997.87086,1.50702
996.38107,1.61644
994.89128,1.59598
993.40149,1.68737
991.91171,1.71630
990.42192,1.71237
988.93213,1.87618
987.44234,1.93808
985.95255,2.00000
984.46276,1.90082
982.97297,1.97266
981.48319,1.82091
979.99340,1.70208
978.50361,1.69672
977.01382,1.69139
975.52403,1.71733
974.03424,1.56901
972.54446,1.68379
971.05467,1.63417
969.56488,1.35768
968.07509,1.37553
966.58530,1.39341
965.09551,1.25183
963.60573,1.29113
962.11594,1.22195
960.62615,1.04756
959.13636,1.07215
957.64657,1.09677
956.15678,1.04085
954.66699,1.02770
953.17721,0.83701
951.68742,0.82391
950.19763,0.84538
948.70784,0.86687
947.21805,0.85057
945.72826,0.81786
944.23848,0.77859
942.74869,0.77881
941.25890,0.72316
939.76911,0.74317
938.27932,0.76321
936.78953,0.82602
935.29974,0.78363
933.80996,0.71167
932.32017,0.85348
930.83038,0.82268
929.34059,0.79191
927.85080,0.86804
926.36101,0.88829
924.87123,0.82964
923.38144,0.86310
921.89165,0.94756
920.40186,1.03205
918.91207,0.97680
917.42228,1.16492
915.93250,1.19523
914.44271,1.18610
912.95292,1.19344
911.46313,1.20081
909.97334,1.23451
908.48355,1.35045
906.99376,1.43024
905.50398,1.49033
904.01419,1.54058
902.52440,1.59086
901.03461,1.60500
899.54482,1.71781
898.05503,1.62019
896.56525,1.83500
895.07546,1.73086
893.58567,1.62674
892.09588,1.67721
890.60609,1.51395
889.11630,1.56118
887.62651,1.47033
886.13673,1.41403
884.64694,1.35776
883.15715,1.42483
881.66736,1.25516
880.17757,1.22692
878.68778,1.23488
877.19800,1.24286
875.70821,1.07659
874.21842,1.01557
872.72863,0.89868
871.23884,0.75551
869.74905,0.73568
868.25927,0.71587
866.76948,0.75693
865.27969,0.68292
863.78990,0.54317
862.30011,0.48566
860.81032,0.53341
859.32053,0.58118
857.83075,0.47771
856.34096,0.49923
854.85117,0.45829
853.36138,0.44369
851.87159,0.38801
850.38180,0.33236
848.89202,0.33100
847.40223,0.18825
845.91244,0.17050
844.42265,0.21196
842.93286,0.25346
841.44307,0.15028
839.95329,0.12277
838.46350,0.14790
836.97371,0.13359
835.48392,0.10617
833.99413,0.07876
832.50434,0.10400
831.01455,0.13584
829.52477,0.00000
828.03498,0.05024
826.54519,0.07912
825.05540,0.10803
823.56561,0.10573
822.07582,0.13634
820.58604,0.03216
819.09625,0.06775
817.60646,0.10338
816.11667,0.06833
814.62688,0.01358
813.13709,0.13643
811.64730,0.02582
810.15752,0.05007
808.66773,0.07435
807.17794,0.00000
805.68815,0.06944
804.19836,0.10603
802.70857,0.07524
801.21879,0.04446
799.72900,0.09758
798.23921,0.08166
796.74942,0.17099
795.25963,0.16171
793.76984,0.15244
792.28006,0.15308
790.79027,0.22279
789.30048,0.28267
787.81069,0.35901
786.32090,0.35153
784.83111,0.34408
783.34132,0.28239
781.85154,0.31609
780.36175,0.40902
778.87196,0.33261
777.38217,0.25623
775.89238,0.47420
774.40259,0.45213
772.91281,0.39721
771.42302,0.44590
769.93323,0.49462
768.44344,0.45293
766.95365,0.49020
765.46386,0.57024
763.97407,0.34776
762.48429,0.35387
760.99450,0.36000
759.50471,0.35793
758.01492,0.23093
756.52513,0.26838
755.03534,0.25654
753.54556,0.24471
752.05577,0.14084
750.56598,0.27377
749.07619,0.08116
747.58640,0.08753
746.09661,0.09393
744.60683,0.05267
743.11704,0.09037
741.62725,0.10836
740.13746,0.12144
738.64767,0.13455
737.15788,0.12961
735.66809,0.08851
734.17831,0.03100
732.68852,0.05409
731.19873,0.07720
729.70894,0.05923
728.21915,0.11364
726.72936,0.00365
725.23958,0.06775
723.74979,0.08585
722.26000,0.10397
720.77021,0.15172
719.28042,0.16989
717.79063,0.12233
716.30084,0.09781
714.81106,0.07331
713.32127,0.08173
711.83148,0.15266
710.34169,0.00000
708.85190,0.04131
707.36211,0.08265
705.87233,0.16513
704.38254,0.12266
702.89275,0.13613
701.40296,0.11839
699.91317,0.10067
698.42338,0.02543
696.93360,0.16397
695.44381,0.26965
693.95402,0.23396
692.46423,0.19829
690.97444,0.17909
689.48465,0.04811
687.99486,0.03554
686.50508,0.06739
685.01529,0.09927
683.52550,0.00457
682.03571,0.07711
680.54592,0.05760
679.05613,0.02989
677.56635,0.00221
676.07656,0.13709
674.58677,0.14704
673.09698,0.07480
671.60719,0.07000
670.11740,0.06523
668.62761,0.15750
667.13783,0.07879
665.64804,0.08726
664.15825,0.09575
662.66846,0.03685
661.17867,0.13255
659.68888,0.09344
658.19910,0.06751
656.70931,0.04160
655.21952,0.09136
653.72973,0.15759
652.23994,0.24687
650.75015,0.17175
649.26037,0.09665
647.77058,0.13339
646.28079,0.19975
644.79100,0.12474
643.30121,0.19609
641.81142,0.26747
640.32163,0.13663
638.83185,0.11434
637.34206,0.00000
635.85227,0.06544
634.36248,0.13090
632.87269,0.20461
631.38290,0.05473
629.89312,0.14822
628.40333,0.14638
626.91354,0.14456
625.42375,0.08687
623.93396,0.13444
622.44417,0.14585
620.95438,0.15730
619.46460,0.15233
617.97481,0.17698
616.48502,0.14905
614.99523,0.14745
613.50544,0.14587
612.01565,0.10486
610.52587,0.05073
609.03608,0.10185
607.54629,0.11190
606.05650,0.12197
604.56671,0.11726
603.07692,0.23426
601.58714,0.21646
600.09735,0.19869
598.60756,0.17437
597.11777,0.14021
595.62798,0.15869
594.13819,0.13444
592.64840,0.11023
591.15862,0.14194
589.66883,0.23617
588.17904,0.26465
586.68925,0.28165
585.19946,0.29867
583.70967,0.27791
582.21989,0.22428
580.73010,0.19371
579.24031,0.16316
577.75052,0.28061
576.26073,0.31260
574.77094,0.42682
573.28115,0.45229
571.79137,0.47777
570.30158,0.37504
568.81179,0.50910
567.32200,0.49685
565.83221,0.48463
564.34242,0.61220
562.85264,0.66745
561.36285,0.68655
559.87306,0.71883
558.38327,0.75114
556.89348,0.77690
555.40369,0.85530
553.91391,0.82521
552.42412,0.79514
550.93433,0.74537
549.44454,0.94227
547.95475,0.86953
546.46496,0.93330
544.97517,0.99709
543.48539,0.98692
541.99560,1.09845
540.50581,1.02421
539.01602,0.94999
537.52623,1.11421
536.03644,1.14693
534.54666,0.93961
533.05687,0.99539
531.56708,1.05121
530.07729,1.03141
528.58750,1.02480
527.09771,0.99848
525.60792,0.97219
524.11814,0.87687
522.62835,0.73882
521.13856,0.91979
519.64877,0.85908
518.15898,0.79839
516.66919,0.74596
515.17941,0.72972
513.68962,0.70200
512.19983,0.67431
510.71004,0.69761
509.22025,0.62558
507.73046,0.56673
506.24068,0.53257
504.75089,0.49843
503.26110,0.51530
501.77131,0.30857
500.28152,0.38797
498.79173,0.46740
497.30194,0.22787
495.81216,0.34023
494.32237,0.32602
492.83258,0.31183
491.34279,0.47689
489.85300,0.32957
488.36321,0.25134
486.87343,0.19287
485.38364,0.13442
483.89385,0.35223
482.40406,0.28069
480.91427,0.20423
479.42448,0.12781
477.93469,0.15171
476.44491,0.07698
474.95512,0.15355
473.46533,0.23014
471.97554,0.03382
470.48575,0.16638
468.99596,0.17728
467.50618,0.18493
466.01639,0.19260
464.52660,0.18386
463.03681,0.17514
461.54702,0.11384
460.05723,0.05256
458.56745,0.17875
457.07766,0.38719
455.58787,0.37696
454.09808,0.36676
452.60829,0.29904
451.11850,0.24779
449.62871,0.27549
448.13893,0.30322
446.64914,0.34084
445.15935,0.43768
443.66956,0.46877
442.17977,0.52292
440.68998,0.57709
439.20020,0.42082
437.71041,0.68879
436.22062,0.67728
434.73083,0.66578
433.24104,0.73324
431.75125,0.89938
430.26146,0.83536
428.77168,0.77135
427.28189,0.80275
425.79210,0.89336
424.30231,1.04977
422.81252,1.20621
421.32273,1.23771
419.83295,1.36131
418.34316,1.27448
416.85337,1.18768
415.36358,1.02527
413.87379,0.90563
412.38400,0.87153
410.89422,0.83745
409.40443,0.96453
407.91464,1.10479
406.42485,1.02804
404.93506,1.07464
403.44527,1.12126
401.95548,0.90648
400.46570,1.02057
398.97591,1.06891
397.48612,1.11729
395.99633,1.06704
394.50654,0.92473
393.01675,0.91071
391.52697,0.89671
390.03718,0.89918
388.54739,0.91812
387.05760,0.89269
385.56781,0.86729
384.07802,0.82055
382.58824,0.83631
381.09845,0.87676
379.60866,0.91723
378.11887,0.62724
376.62908,0.79109
375.13929,0.69354
373.64950,0.59600
372.15972,0.70074
370.66993,0.51283
369.18014,0.45320
367.69035,0.39360
366.20056,0.48200
364.71077,0.45204
363.22099,0.38758
361.73120,0.32315
360.24141,0.14201
358.75162,0.31605
357.26183,0.29445
355.77204,0.27288
354.28225,0.27271
352.79247,0.17720
351.30268,0.16557
349.81289,0.15397
348.32310,0.13747
346.83331,0.27226
345.34352,0.19990
343.85374,0.12757
342.36395,0.16050
340.87416,0.15071
339.38437,0.13766
337.89458,0.12463
336.40479,0.13136
334.91501,0.00000
333.42522,0.06847
331.93543,0.13697
330.44564,0.14301
328.95585,0.18854
327.46606,0.14531
325.97627,0.10210
324.48649,0.12141
322.99670,0.10785
321.50691,0.11570
320.01712,0.12358
318.52733,0.01145
317.03754,0.00000
315.54776,0.05361
314.05797,0.10725
312.56818,0.08035
311.07839,0.10609
309.58860,0.08910
308.09881,0.07215
306.60902,0.02562
305.11924,0.07120
303.62945,0.11681
302.13966,0.16244
300.64987,0.00093
299.16008,0.00000
