1778.52000,0.04442
1777.03021,0.04190
1775.54042,0.08151
1774.05063,0.01732
1772.56085,0.07382
1771.07106,0.03495
1769.58127,0.13081
1768.09148,0.07797
1766.60169,0.03358
1765.11190,0.11551
1763.62212,0.04032
1762.13233,0.06057
1760.64254,0.07805
1759.15275,0.00857
1757.66296,0.10749
1756.17317,0.03807
1754.68339,0.09496
1753.19360,0.09577
1751.70381,0.09099
1750.21402,0.08343
1748.72423,0.00857
1747.23444,0.02919
1745.74465,0.05264
1744.25487,0.09297
1742.76508,0.06598
1741.27529,0.14566
1739.78550,0.08506
1738.29571,0.03852
1736.80592,0.15197
1735.31614,0.11111
1733.82635,0.12922
1732.33656,0.10526
1730.84677,0.14307
1729.35698,0.07708
1727.86719,0.10654
1726.37740,0.06307
1724.88762,0.10942
1723.39783,0.11091
1721.90804,0.07315
1720.41825,0.09716
1718.92846,0.06507
1717.43867,0.11439
1715.94889,0.07957
1714.45910,0.08125
1712.96931,0.11664
1711.47952,0.13803
1709.98973,0.10895
1708.49994,0.09953
1707.01016,0.08735
1705.52037,0.07520
1704.03058,0.11078
1702.54079,0.07905
1701.05100,0.14837
1699.56121,0.09145
1698.07142,0.12155
1696.58164,0.00857
1695.09185,0.11107
1693.60206,0.14345
1692.11227,0.11132
1690.62248,0.13254
1689.13269,0.07242
1687.64291,0.10773
1686.15312,0.11221
1684.66333,0.04657
1683.17354,0.06796
1681.68375,0.11182
1680.19396,0.06592
1678.70417,0.09020
1677.21439,0.08926
1675.72460,0.11081
1674.23481,0.05661
1672.74502,0.08945
1671.25523,0.04654
1669.76544,0.15240
1668.27566,0.08150
1666.78587,0.13130
1665.29608,0.04924
1663.80629,0.10191
1662.31650,0.05639
1660.82671,0.13438
1659.33693,0.16750
1657.84714,0.14454
1656.35735,0.13844
1654.86756,0.10711
1653.37777,0.01970
1651.88798,0.04737
1650.39819,0.06946
1648.90841,0.14490
1647.41862,0.10251
1645.92883,0.07138
1644.43904,0.04028
1642.94925,0.12708
1641.45946,0.09043
1639.96968,0.17168
1638.47989,0.08178
1636.99010,0.07329
1635.50031,0.08448
1634.01052,0.10412
1632.52073,0.04802
1631.03094,0.11262
1629.54116,0.18287
1628.05137,0.20825
1626.56158,0.09335
1625.07179,0.15527
1623.58200,0.04325
1622.09221,0.07156
1620.60243,0.00169
1619.11264,0.08770
1617.62285,0.08955
1616.13306,0.08863
1614.64327,0.01197
1613.15348,0.05040
1611.66370,0.04676
1610.17391,0.09648
1608.68412,0.07888
1607.19433,0.06412
1605.70454,0.08868
1604.21475,0.10906
1602.72496,0.12947
1601.23518,0.01382
1599.74539,0.09744
1598.25560,0.06042
1596.76581,0.08517
1595.27602,0.08751
1593.78623,0.01130
1592.29645,0.05018
1590.80666,0.06944
1589.31687,0.11400
1587.82708,0.02389
1586.33729,0.11060
1584.84750,0.05704
1583.35771,0.10734
1581.86793,0.05664
1580.37814,0.11823
1578.88835,0.05357
1577.39856,0.07313
1575.90877,0.02256
1574.41898,0.08989
1572.92920,0.03378
1571.43941,0.00857
1569.94962,0.02404
1568.45983,0.03955
1566.97004,0.14349
1565.48025,0.03700
1563.99047,0.09610
1562.50068,0.08508
1561.01089,0.10496
1559.52110,0.02947
1558.03131,0.03258
1556.54152,0.06378
1555.05173,0.04731
1553.56195,0.00000
1552.07216,0.06778
1550.58237,0.14962
1549.09258,0.15573
1547.60279,0.33304
1546.11300,0.49636
1544.62322,0.44925
1543.13343,0.35727
1541.64364,0.15588
1540.15385,0.08221
1538.66406,0.00857
1537.17427,0.08917
1535.68448,0.04352
1534.19470,0.11016
1532.70491,0.05054
1531.21512,0.02183
1529.72533,0.05489
1528.23554,0.00660
1526.74575,0.07744
1525.25597,0.08377
1523.76618,0.06487
1522.27639,0.03198
1520.78660,0.01034
1519.29681,0.07573
1517.80702,0.09625
1516.31724,0.04664
1514.82745,0.07284
1513.33766,0.07522
1511.84787,0.07762
1510.35808,0.05341
1508.86829,0.02361
1507.37850,0.01629
1505.88872,0.05952
1504.39893,0.01859
1502.90914,0.00857
1501.41935,0.06478
1499.92956,0.04246
1498.43977,0.05104
1496.94999,0.05403
1495.46020,0.05987
1493.97041,0.10222
1492.48062,0.15301
1490.99083,0.11124
1489.50104,0.11721
1488.01125,0.09374
1486.52147,0.07030
1485.03168,0.16055
1483.54189,0.07684
1482.05210,0.15873
1480.56231,0.24346
1479.07252,0.19353
1477.58274,0.24465
1476.09295,0.26213
1474.60316,0.29647
1473.11337,0.25509
1471.62358,0.19409
1470.13379,0.27905
1468.64401,0.22373
1467.15422,0.29191
1465.66443,0.26050
1464.17464,0.22913
1462.68485,0.20200
1461.19506,0.16648
1459.70527,0.12539
1458.21549,0.08993
1456.72570,0.05171
1455.23591,0.12295
1453.74612,0.15214
1452.25633,0.09156
1450.76654,0.00857
1449.27676,0.04303
1447.78697,0.03823
1446.29718,0.15133
1444.80739,0.10871
1443.31760,0.06613
1441.82781,0.13723
1440.33802,0.13821
1438.84824,0.16448
1437.35845,0.11781
1435.86866,0.05154
1434.37887,0.06948
1432.88908,0.05940
1431.39929,0.11950
1429.90951,0.10948
1428.41972,0.15000
1426.92993,0.08392
1425.44014,0.06277
1423.95035,0.11321
1422.46056,0.16369
1420.97078,0.13702
1419.48099,0.18896
1417.99120,0.17078
1416.50141,0.12737
1415.01162,0.17380
1413.52183,0.14730
1412.03204,0.16572
1410.54226,0.16173
1409.05247,0.20829
1407.56268,0.17630
1406.07289,0.15837
1404.58310,0.17135
1403.09331,0.18436
1401.60353,0.18617
1400.11374,0.23292
1398.62395,0.31337
1397.13416,0.29564
1395.64437,0.34810
1394.15458,0.36972
1392.66479,0.32121
1391.17501,0.29239
1389.68522,0.27482
1388.19543,0.33866
1386.70564,0.31975
1385.21585,0.30087
1383.72606,0.19083
1382.23628,0.32495
1380.74649,0.30477
1379.25670,0.33232
1377.76691,0.43006
1376.27712,0.29492
1374.78733,0.36186
1373.29755,0.36709
1371.80776,0.48180
1370.31797,0.64424
1368.82818,0.72955
1367.33839,0.81489
1365.84860,0.96901
1364.35881,1.07826
1362.86903,1.19316
1361.37924,1.38386
1359.88945,1.22382
1358.39966,1.19570
1356.90987,1.10307
1355.42008,1.17043
1353.93030,1.29113
1352.44051,1.29261
1350.95072,1.29411
1349.46093,1.13430
1347.97114,0.75283
1346.48135,0.56782
1344.99156,0.40810
1343.50178,0.34944
1342.01199,0.33290
1340.52220,0.28833
1339.03241,0.34762
1337.54262,0.25541
1336.05283,0.26987
1334.56305,0.28436
1333.07326,0.16418
1331.58347,0.19557
1330.09368,0.27751
1328.60389,0.14340
1327.11410,0.09350
1325.62432,0.09977
1324.13453,0.11448
1322.64474,0.00857
1321.15495,0.12408
1319.66516,0.09512
1318.17537,0.06619
1316.68558,0.04431
1315.19580,0.05893
1313.70601,0.14936
1312.21622,0.13599
1310.72643,0.10301
1309.23664,0.06165
1307.74685,0.17746
1306.25707,0.04074
1304.76728,0.07384
1303.27749,0.10696
1301.78770,0.08821
1300.29791,0.07510
1298.80812,0.10691
1297.31834,0.14438
1295.82855,0.13417
1294.33876,0.11558
1292.84897,0.08860
1291.35918,0.04761
1289.86939,0.05297
1288.37960,0.05835
1286.88982,0.11569
1285.40003,0.08606
1283.91024,0.10136
1282.42045,0.12793
1280.93066,0.07314
1279.44087,0.04645
1277.95109,0.00857
1276.46130,0.09211
1274.97151,0.11535
1273.48172,0.13862
1271.99193,0.10159
1270.50214,0.08985
1269.01235,0.04166
1267.52257,0.16749
1266.03278,0.12498
1264.54299,0.14143
1263.05320,0.11301
1261.56341,0.10147
1260.07362,0.08995
1258.58384,0.12618
1257.09405,0.14840
1255.60426,0.13418
1254.11447,0.07228
1252.62468,0.20124
1251.13489,0.13098
1249.64511,0.10567
1248.15532,0.10844
1246.66553,0.09020
1245.17574,0.07199
1243.68595,0.06083
1242.19616,0.10583
1240.70637,0.05825
1239.21659,0.07244
1237.72680,0.03615
1236.23701,0.12337
1234.74722,0.14889
1233.25743,0.12111
1231.76764,0.09337
1230.27786,0.08811
1228.78807,0.06325
1227.29828,0.05805
1225.80849,0.10060
1224.31870,0.12072
1222.82891,0.01180
1221.33912,0.12178
1219.84934,0.09851
1218.35955,0.07527
1216.86976,0.14046
1215.37997,0.05414
1213.89018,0.11097
1212.40039,0.14258
1210.91061,0.13213
1209.42082,0.12171
1207.93103,0.12255
1206.44124,0.12342
1204.95145,0.11590
1203.46166,0.02423
1201.97188,0.07851
1200.48209,0.04584
1198.99230,0.11422
1197.50251,0.05354
1196.01272,0.11076
1194.52293,0.09926
1193.03314,0.08779
1191.54336,0.10021
1190.05357,0.11827
1188.56378,0.13917
1187.07399,0.00857
1185.58420,0.05419
1184.09441,0.20648
1182.60463,0.15115
1181.11484,0.09585
1179.62505,0.11074
1178.13526,0.10882
1176.64547,0.10974
1175.15568,0.20610
1173.66589,0.12010
1172.17611,0.12672
1170.68632,0.11795
1169.19653,0.10921
1167.70674,0.14119
1166.21695,0.13672
1164.72716,0.12948
1163.23738,0.06896
1161.74759,0.12071
1160.25780,0.18372
1158.76801,0.12750
1157.27822,0.07131
1155.78843,0.07549
1154.29865,0.13863
1152.80886,0.10078
1151.31907,0.12469
1149.82928,0.13181
1148.33949,0.14737
1146.84970,0.10824
1145.35991,0.06915
1143.87013,0.12410
1142.38034,0.09208
1140.89055,0.12464
1139.40076,0.14882
1137.91097,0.13654
1136.42118,0.16078
1134.93140,0.12472
1133.44161,0.08869
1131.95182,0.21124
1130.46203,0.19632
1128.97224,0.14776
1127.48245,0.13572
1125.99266,0.14054
1124.50288,0.19590
1123.01309,0.17693
1121.52330,0.15800
1120.03351,0.21065
1118.54372,0.18196
1117.05393,0.19539
1115.56415,0.27059
1114.07436,0.24480
1112.58457,0.28078
1111.09478,0.31679
1109.60499,0.29391
1108.11520,0.38049
1106.62542,0.27910
1105.13563,0.37978
1103.64584,0.42998
1102.15605,0.35394
1100.66626,0.37193
1099.17647,0.38996
1097.68668,0.53570
1096.19690,0.56081
1094.70711,0.44003
1093.21732,0.54097
1091.72753,0.48760
1090.23774,0.52547
1088.74795,0.56336
1087.25817,0.70933
1085.76838,0.65048
1084.27859,0.68707
1082.78880,0.72930
1081.29901,0.59198
1079.80922,0.66795
1078.31943,0.68082
1076.82965,0.69372
1075.33986,0.71086
1073.85007,0.62420
1072.36028,0.65824
1070.87049,0.61094
1069.38070,0.52718
1067.89092,0.56553
1066.40113,0.60391
1064.91134,0.53429
1063.42155,0.45066
1061.93176,0.46809
1060.44197,0.42382
1058.95219,0.31784
1057.46240,0.36483
1055.97261,0.41185
1054.48282,0.33404
1052.99303,0.36569
1051.50324,0.22901
1050.01345,0.43190
1048.52367,0.16620
1047.03388,0.21342
1045.54409,0.26066
1044.05430,0.11011
1042.56451,0.17005
1041.07472,0.12339
1039.58494,0.06554
1038.09515,0.11154
1036.60536,0.08462
1035.11557,0.05773
1033.62578,0.08700
1032.13599,0.07701
1030.64620,0.12037
1029.15642,0.13009
1027.66663,0.12722
1026.17684,0.12438
1024.68705,0.18751
1023.19726,0.15527
1021.70747,0.25775
1020.21769,0.27889
1018.72790,0.30567
1017.23811,0.30582
1015.74832,0.30601
1014.25853,0.38621
1012.76874,0.41031
1011.27896,0.59440
1009.78917,0.57087
1008.29938,0.62313
1006.80959,0.71471
1005.31980,0.80632
1003.83001,0.82782
1002.34022,0.82408
1000.85044,1.05330
999.36065,1.31902
997.87086,1.44447
996.38107,1.56995
994.89128,1.60286
993.40149,1.66667
991.91171,1.93817
990.42192,1.95153
988.93213,1.90880
987.44234,1.89557
985.95255,1.88237
984.46276,1.81449
982.97297,1.83082
981.48319,1.85560
979.99340,1.68959
978.50361,1.74390
977.01382,1.79824
975.52403,1.72774
974.03424,1.79759
972.54446,1.61210
971.05467,1.65113
969.56488,1.52745
968.07509,1.45290
966.58530,1.37838
965.09551,1.26882
963.60573,1.34169
962.11594,1.38373
960.62615,1.20411
959.13636,1.22657
957.64657,1.24906
956.15678,1.05270
954.66699,0.92091
953.17721,0.93508
951.68742,0.90438
950.19763,0.83163
948.70784,0.75890
947.21805,0.88544
945.72826,0.91380
944.23848,0.82433
942.74869,0.78822
941.25890,0.62305
939.76911,0.64733
938.27932,0.67164
936.78953,0.85453
935.29974,0.78771
933.80996,0.78826
932.32017,0.76640
930.83038,0.80210
929.34059,0.83783
927.85080,0.70101
926.36101,0.76627
924.87123,0.78385
923.38144,0.87724
921.89165,0.79387
920.40186,0.71053
918.91207,0.89661
917.42228,0.87788
915.93250,0.88443
914.44271,0.93311
912.95292,0.94955
911.46313,0.96602
909.97334,1.10740
908.48355,1.00749
906.99376,1.15735
905.50398,1.15851
904.01419,1.21864
902.52440,1.27881
901.03461,1.27446
899.54482,1.37397
898.05503,1.34724
896.56525,1.53942
895.07546,1.46364
893.58567,1.38789
892.09588,1.37813
890.60609,1.27298
889.11630,1.19874
887.62651,1.13575
886.13673,1.08402
884.64694,1.03232
883.15715,1.09290
881.66736,1.11422
880.17757,1.05420
878.68778,1.04192
877.19800,1.02967
875.70821,0.83224
874.21842,0.87337
872.72863,0.77423
871.23884,0.74246
869.74905,0.70652
868.25927,0.67061
866.76948,0.58562
865.27969,0.66062
863.78990,0.51115
862.30011,0.55534
860.81032,0.52380
859.32053,0.49230
857.83075,0.44679
856.34096,0.56407
854.85117,0.42322
853.36138,0.47602
851.87159,0.43065
850.38180,0.38530
848.89202,0.31192
847.40223,0.22455
845.91244,0.26629
844.42265,0.27579
842.93286,0.28533
841.44307,0.14757
839.95329,0.13332
838.46350,0.13594
836.97371,0.09369
835.48392,0.10058
833.99413,0.10750
832.50434,0.09902
831.01455,0.21404
829.52477,0.11583
828.03498,0.09622
826.54519,0.08366
825.05540,0.07113
823.56561,0.10775
822.07582,0.16403
820.58604,0.08566
819.09625,0.09852
817.60646,0.11140
816.11667,0.15379
814.62688,0.09799
813.13709,0.07590
811.64730,0.14083
810.15752,0.11179
808.66773,0.08278
807.17794,0.01872
805.68815,0.11465
804.19836,0.00857
802.70857,0.06266
801.21879,0.11678
799.72900,0.12744
798.23921,0.14655
796.74942,0.21060
795.25963,0.25082
793.76984,0.29107
792.28006,0.28225
790.79027,0.25101
789.30048,0.37976
787.81069,0.41873
786.32090,0.36655
784.83111,0.31439
783.34132,0.40398
781.85154,0.33084
780.36175,0.40927
778.87196,0.37829
777.38217,0.34734
775.89238,0.42306
774.40259,0.36972
772.91281,0.41183
771.42302,0.39083
769.93323,0.36986
768.44344,0.36717
766.95365,0.44589
765.46386,0.44326
763.97407,0.41260
762.48429,0.35952
760.99450,0.30648
759.50471,0.34046
758.01492,0.27064
756.52513,0.25978
755.03534,0.21388
753.54556,0.16802
752.05577,0.05343
750.56598,0.17459
749.07619,0.10778
747.58640,0.12377
746.09661,0.13980
744.60683,0.07870
743.11704,0.09338
741.62725,0.14459
740.13746,0.07656
738.64767,0.00857
737.15788,0.06616
735.66809,0.09854
734.17831,0.11972
732.68852,0.10305
731.19873,0.08642
729.70894,0.06560
728.21915,0.03640
726.72936,0.05494
725.23958,0.06228
723.74979,0.09632
722.26000,0.13039
720.77021,0.02839
719.28042,0.09479
717.79063,0.07143
716.30084,0.08458
714.81106,0.09776
713.32127,0.08853
711.83148,0.08775
710.34169,0.08138
708.85190,0.05400
707.36211,0.02666
705.87233,0.07371
704.38254,0.12079
702.89275,0.10336
701.40296,0.08737
699.91317,0.07141
698.42338,0.13826
696.93360,0.48015
695.44381,0.53304
693.95402,0.52703
692.46423,0.52105
690.97444,0.26536
689.48465,0.03776
687.99486,0.13570
686.50508,0.14669
685.01529,0.15771
683.52550,0.08177
682.03571,0.10408
680.54592,0.00857
679.05613,0.04937
677.56635,0.09021
676.07656,0.09320
674.58677,0.13270
673.09698,0.08243
671.60719,0.16269
670.11740,0.24297
668.62761,0.13948
667.13783,0.13705
665.64804,0.12764
664.15825,0.11826
662.66846,0.06260
661.17867,0.09397
659.68888,0.08609
658.19910,0.06982
656.70931,0.05358
655.21952,0.02054
653.72973,0.13345
652.23994,0.08364
650.75015,0.11243
649.26037,0.14125
647.77058,0.09153
646.28079,0.21302
644.79100,0.27562
643.30121,0.32421
641.81142,0.37284
640.32163,0.27277
638.83185,0.14748
637.34206,0.11763
635.85227,0.07799
634.36248,0.03838
632.87269,0.09001
631.38290,0.04626
629.89312,0.03621
628.40333,0.08653
626.91354,0.13688
625.42375,0.09887
623.93396,0.10860
622.44417,0.08047
620.95438,0.05238
619.46460,0.10710
617.97481,0.13660
616.48502,0.07914
614.99523,0.10169
613.50544,0.12427
612.01565,0.12303
610.52587,0.11901
609.03608,0.12345
607.54629,0.12231
606.05650,0.12119
604.56671,0.18466
603.07692,0.16958
601.58714,0.17137
600.09735,0.17319
598.60756,0.14418
597.11777,0.00857
595.62798,0.13248
594.13819,0.08665
592.64840,0.04085
591.15862,0.08348
589.66883,0.08966
588.17904,0.18286
586.68925,0.16806
585.19946,0.15329
583.70967,0.31394
582.21989,0.17155
580.73010,0.23124
579.24031,0.29096
577.75052,0.23286
576.26073,0.27862
574.77094,0.43665
573.28115,0.40951
571.79137,0.38240
570.30158,0.47599
568.81179,0.50788
567.32200,0.47526
565.83221,0.44267
564.34242,0.47746
562.85264,0.52631
561.36285,0.65096
559.87306,0.69426
558.38327,0.73760
556.89348,0.72484
555.40369,0.80753
553.91391,0.79344
552.42412,0.77938
550.93433,0.88180
549.44454,0.84957
547.95475,0.79211
546.46496,0.84833
544.97517,0.90458
543.48539,0.92299
541.99560,0.82076
540.50581,0.88132
539.01602,0.94191
537.52623,1.01656
536.03644,1.14737
534.54666,1.16316
533.05687,1.09901
531.56708,1.03489
530.07729,0.79822
528.58750,0.87307
527.09771,0.83710
525.60792,0.80117
524.11814,0.74984
522.62835,0.69012
521.13856,0.69498
519.64877,0.67461
518.15898,0.65427
516.66919,0.65361
515.17941,0.42288
513.68962,0.43491
512.19983,0.44697
510.71004,0.46328
509.22025,0.43472
507.73046,0.42303
506.24068,0.33841
504.75089,0.25382
503.26110,0.44146
501.77131,0.29520
500.28152,0.28788
498.79173,0.28059
497.30194,0.21861
495.81216,0.30820
494.32237,0.26452
492.83258,0.22088
491.34279,0.20113
489.85300,0.12809
488.36321,0.25712
486.87343,0.20098
485.38364,0.14487
483.89385,0.09721
482.40406,0.07485
480.91427,0.04549
479.42448,0.01617
477.93469,0.13982
476.44491,0.18493
474.95512,0.11922
473.46533,0.05355
471.97554,0.12120
470.48575,0.14399
468.99596,0.22855
467.50618,0.19107
466.01639,0.15362
464.52660,0.10638
463.03681,0.16019
461.54702,0.14950
460.05723,0.13884
458.56745,0.18433
457.07766,0.17934
455.58787,0.20526
454.09808,0.23121
452.60829,0.14494
451.11850,0.12886
449.62871,0.19419
448.13893,0.25955
446.64914,0.31652
445.15935,0.30057
443.66956,0.41654
442.17977,0.40627
440.68998,0.39602
439.20020,0.44755
437.71041,0.49349
436.22062,0.55069
434.73083,0.60793
433.24104,0.63994
431.75125,0.74213
430.26146,0.73913
428.77168,0.73616
427.28189,0.74585
425.79210,0.89027
424.30231,1.16099
422.81252,1.43175
421.32273,2.00000
419.83295,1.93689
418.34316,1.82470
416.85337,1.71255
415.36358,1.07147
413.87379,0.84573
412.38400,0.87539
410.89422,0.90507
409.40443,1.07790
407.91464,0.96174
406.42485,1.17111
404.93506,1.07886
403.44527,0.98664
401.95548,0.95759
400.46570,0.78265
398.97591,0.80839
397.48612,0.83416
395.99633,0.81927
394.50654,0.91946
393.01675,0.88780
391.52697,0.85617
390.03718,0.86947
388.54739,0.83510
387.05760,0.84425
385.56781,0.85344
384.07802,0.73498
382.58824,0.64742
381.09845,0.64408
379.60866,0.64077
378.11887,0.55330
376.62908,0.55006
375.13929,0.50615
373.64950,0.46228
372.15972,0.51806
370.66993,0.33535
369.18014,0.34208
367.69035,0.34885
366.20056,0.25884
364.71077,0.36249
363.22099,0.37777
361.73120,0.39308
360.24141,0.15447
358.75162,0.21054
357.26183,0.16983
355.77204,0.12915
354.28225,0.19374
352.79247,0.20504
351.30268,0.17568
349.81289,0.14635
348.32310,0.06234
346.83331,0.08499
345.34352,0.06839
343.85374,0.05182
342.36395,0.12789
340.87416,0.12541
339.38437,0.16226
337.89458,0.19913
336.40479,0.18273
334.91501,0.07094
333.42522,0.05740
331.93543,0.04390
330.44564,0.13145
328.95585,0.00857
327.46606,0.02075
325.97627,0.03296
324.48649,0.06765
322.99670,0.02101
321.50691,0.08944
320.01712,0.15790
318.52733,0.13660
317.03754,0.03115
315.54776,0.05903
314.05797,0.08693
312.56818,0.13030
311.07839,0.08952
309.58860,0.07964
308.09881,0.06979
306.60902,0.16380
305.11924,0.06422
303.62945,0.05306
302.13966,0.04194
300.64987,0.10241
299.16008,0.00857
