1778.52000,0.00347
1777.03021,-0.00000
1775.54042,0.02376
1774.05063,0.01007
1772.56085,0.02310
1771.07106,0.01820
1769.58127,0.01435
1768.09148,0.03926
1766.60169,0.02058
1765.11190,0.02040
1763.62212,0.01666
1762.13233,0.02166
1760.64254,0.01027
1759.15275,0.03432
1757.66296,0.02555
1756.17317,0.02707
1754.68339,0.01220
1753.19360,0.01172
1751.70381,0.03642
1750.21402,0.01495
1748.72423,0.01558
1747.23444,0.03522
1745.74465,0.01178
1744.25487,0.02737
1742.76508,0.03632
1741.27529,0.01450
1739.78550,0.01375
1738.29571,0.01097
1736.80592,0.01027
1735.31614,0.01126
1733.82635,0.03029
1732.33656,0.02779
1730.84677,0.01813
1729.35698,0.02596
1727.86719,0.01840
1726.37740,0.01858
1724.88762,0.02853
1723.39783,0.01696
1721.90804,0.01567
1720.41825,0.02314
1718.92846,0.02088
1717.43867,0.01506
1715.94889,0.02517
1714.45910,0.02146
1712.96931,0.02906
1711.47952,0.02488
1709.98973,0.02432
1708.49994,0.02585
1707.01016,0.01739
1705.52037,0.00895
1704.03058,0.03314
1702.54079,0.01783
1701.05100,0.04002
1699.56121,0.03144
1698.07142,0.00646
1696.58164,0.02975
1695.09185,0.03921
1693.60206,0.04511
1692.11227,0.01715
1690.62248,0.01027
1689.13269,0.04237
1687.64291,0.02470
1686.15312,0.02810
1684.66333,0.04077
1683.17354,0.02883
1681.68375,0.04618
1680.19396,0.02608
1678.70417,0.04091
1677.21439,0.02651
1675.72460,0.03010
1674.23481,0.01730
1672.74502,0.01837
1671.25523,0.04258
1669.76544,0.04012
1668.27566,0.04128
1666.78587,0.05119
1665.29608,0.06420
1663.80629,0.04543
1662.31650,0.05131
1660.82671,0.04901
1659.33693,0.03801
1657.84714,0.06451
1656.35735,0.03817
1654.86756,0.03803
1653.37777,0.02560
1651.88798,0.03834
1650.39819,0.05419
1648.90841,0.06750
1647.41862,0.05518
1645.92883,0.05238
1644.43904,0.04960
1642.94925,0.02196
1641.45946,0.01539
1639.96968,0.04631
1638.47989,0.05776
1636.99010,0.03535
1635.50031,0.04737
1634.01052,0.05581
1632.52073,0.05556
1631.03094,0.03840
1629.54116,0.04539
1628.05137,0.07190
1626.56158,0.07073
1625.07179,0.04238
1623.58200,0.04588
1622.09221,0.02529
1620.60243,0.02474
1619.11264,0.02832
1617.62285,0.06375
1616.13306,0.03916
1614.64327,0.03768
1613.15348,0.04240
1611.66370,0.04047
1610.17391,0.03395
1608.68412,0.03412
1607.19433,0.01482
1605.70454,0.04892
1604.21475,0.04199
1602.72496,0.03509
1601.23518,0.02873
1599.74539,0.02701
1598.25560,0.03097
1596.76581,0.02879
1595.27602,0.02869
1593.78623,0.03016
1592.29645,0.02653
1590.80666,0.03010
1589.31687,0.02242
1587.82708,0.02861
1586.33729,0.03637
1584.84750,0.01440
1583.35771,0.04171
1581.86793,0.02389
1580.37814,0.03895
1578.88835,0.02221
1577.39856,0.03065
1575.90877,0.03398
1574.41898,0.02194
1572.92920,0.02532
1571.43941,0.02565
1569.94962,0.02601
1568.45983,0.02639
1566.97004,0.01603
1565.48025,0.03289
1563.99047,0.03541
1562.50068,0.02871
1561.01089,0.03539
1559.52110,0.01027
1558.03131,0.02819
1556.54152,0.02817
1555.05173,0.03896
1553.56195,0.04926
1552.07216,0.04265
1550.58237,0.03812
1549.09258,0.05825
1547.60279,0.07276
1546.11300,0.08884
1544.62322,0.07928
1543.13343,0.04974
1541.64364,0.05512
1540.15385,0.04769
1538.66406,0.04030
1537.17427,0.06680
1535.68448,0.03072
1534.19470,0.03161
1532.70491,0.03305
1531.21512,0.02116
1529.72533,0.04370
1528.23554,0.03803
1526.74575,0.01801
1525.25597,0.01856
1523.76618,0.05454
1522.27639,0.03563
1520.78660,0.03112
1519.29681,0.03742
1517.80702,0.02886
1516.31724,0.04547
1514.82745,0.01900
1513.33766,0.01462
1511.84787,0.01027
1510.35808,0.03929
1508.86829,0.03805
1507.37850,0.03120
1505.88872,0.04079
1504.39893,0.03245
1502.90914,0.01027
1501.41935,0.01615
1499.92956,0.02822
1498.43977,0.02440
1496.94999,0.04267
1495.46020,0.03993
1493.97041,0.05570
1492.48062,0.08176
1490.99083,0.07756
1489.50104,0.09597
1488.01125,0.11184
1486.52147,0.12774
1485.03168,0.13083
1483.54189,0.16218
1482.05210,0.18535
1480.56231,0.19468
1479.07252,0.21995
1477.58274,0.23909
1476.09295,0.25517
1474.60316,0.25230
1473.11337,0.27665
1471.62358,0.24097
1470.13379,0.22483
1468.64401,0.20307
1467.15422,0.21213
1465.66443,0.21968
1464.17464,0.22725
1462.68485,0.20765
1461.19506,0.14804
1459.70527,0.12952
1458.21549,0.09922
1456.72570,0.07716
1455.23591,0.07206
1453.74612,0.07315
1452.25633,0.08504
1450.76654,0.06771
1449.27676,0.05758
1447.78697,0.06340
1446.29718,0.05949
1444.80739,0.06305
1443.31760,0.06663
1441.82781,0.06178
1440.33802,0.05798
1438.84824,0.03777
1437.35845,0.05096
1435.86866,0.02517
1434.37887,0.02661
1432.88908,0.05784
1431.39929,0.06292
1429.90951,0.05520
1428.41972,0.07676
1426.92993,0.05729
1425.44014,0.07172
1423.95035,0.08412
1422.46056,0.09655
1420.97078,0.10284
1419.48099,0.10865
1417.99120,0.11911
1416.50141,0.11009
1415.01162,0.10007
1413.52183,0.13267
1412.03204,0.11193
1410.54226,0.13484
1409.05247,0.14391
1407.56268,0.16585
1406.07289,0.16985
1404.58310,0.17413
1403.09331,0.17844
1401.60353,0.15634
1400.11374,0.14402
1398.62395,0.20358
1397.13416,0.21852
1395.64437,0.22886
1394.15458,0.20690
1392.66479,0.22756
1391.17501,0.20924
1389.68522,0.18941
1388.19543,0.19219
1386.70564,0.19705
1385.21585,0.20193
1383.72606,0.21301
1382.23628,0.18869
1380.74649,0.20033
1379.25670,0.17658
1377.76691,0.22471
1376.27712,0.26825
1374.78733,0.29796
1373.29755,0.40109
1371.80776,0.46986
1370.31797,0.56689
1368.82818,0.63494
1367.33839,0.70302
1365.84860,0.83195
1364.35881,0.90445
1362.86903,0.91897
1361.37924,0.99717
1359.88945,0.97120
1358.39966,0.97965
1356.90987,0.90600
1355.42008,0.79440
1353.93030,0.71413
1352.44051,0.67110
1350.95072,0.62810
1349.46093,0.53867
1347.97114,0.48674
1346.48135,0.36862
1344.99156,0.29262
1343.50178,0.26951
1342.01199,0.26594
1340.52220,0.20541
1339.03241,0.19214
1337.54262,0.16708
1336.05283,0.15566
1334.56305,0.14426
1333.07326,0.15778
1331.58347,0.13026
1330.09368,0.12074
1328.60389,0.12202
1327.11410,0.08997
1325.62432,0.06000
1324.13453,0.04134
1322.64474,0.03144
1321.15495,0.01027
1319.66516,0.02455
1318.17537,0.03886
1316.68558,0.04267
1315.19580,0.05318
1313.70601,0.03960
1312.21622,0.02758
1310.72643,0.03920
1309.23664,0.02928
1307.74685,0.03839
1306.25707,0.04136
1304.76728,0.03333
1303.27749,0.02532
1301.78770,0.04479
1300.29791,0.01862
1298.80812,0.04174
1297.31834,0.03563
1295.82855,0.02648
1294.33876,0.02504
1292.84897,0.03852
1291.35918,0.05767
1289.86939,0.04529
1288.37960,0.03292
1286.88982,0.05010
1285.40003,0.04216
1283.91024,0.01936
1282.42045,0.05047
1280.93066,0.01027
1279.44087,0.03403
1277.95109,0.03678
1276.46130,0.03134
1274.97151,0.03516
1273.48172,0.03902
1271.99193,0.02698
1270.50214,0.05450
1269.01235,0.04457
1267.52257,0.08292
1266.03278,0.07254
1264.54299,0.06680
1263.05320,0.06878
1261.56341,0.07978
1260.07362,0.09080
1258.58384,0.07234
1257.09405,0.09393
1255.60426,0.08527
1254.11447,0.08280
1252.62468,0.07471
1251.13489,0.02969
1249.64511,0.06579
1248.15532,0.03006
1246.66553,0.03825
1245.17574,0.04646
1243.68595,0.05084
1242.19616,0.06398
1240.70637,0.04789
1239.21659,0.01027
1237.72680,0.05467
1236.23701,0.02673
1234.74722,0.05578
1233.25743,0.06638
1231.76764,0.07701
1230.27786,0.02505
1228.78807,0.05267
1227.29828,0.05107
1225.80849,0.05256
1224.31870,0.05460
1222.82891,0.03716
1221.33912,0.04234
1219.84934,0.03470
1218.35955,0.02710
1216.86976,0.05236
1215.37997,0.04892
1213.89018,0.06808
1212.40039,0.05596
1210.91061,0.02693
1209.42082,0.03129
1207.93103,0.03850
1206.44124,0.04573
1204.95145,0.04761
1203.46166,0.05259
1201.97188,0.03757
1200.48209,0.01027
1198.99230,0.03236
1197.50251,0.02009
1196.01272,0.04685
1194.52293,0.04900
1193.03314,0.05118
1191.54336,0.02823
1190.05357,0.03560
1188.56378,0.04093
1187.07399,0.04989
1185.58420,0.03065
1184.09441,0.06275
1182.60463,0.04587
1181.11484,0.02902
1179.62505,0.03246
1178.13526,0.01027
1176.64547,0.06415
1175.15568,0.04312
1173.66589,0.08320
1172.17611,0.08480
1170.68632,0.06976
1169.19653,0.05474
1167.70674,0.04719
1166.21695,0.03915
1164.72716,0.06758
1163.23738,0.05908
1161.74759,0.04188
1160.25780,0.05808
1158.76801,0.04889
1157.27822,0.03973
1155.78843,0.04163
1154.29865,0.06871
1152.80886,0.07682
1151.31907,0.07521
1149.82928,0.06387
1148.33949,0.10543
1146.84970,0.09902
1145.35991,0.09264
1143.87013,0.07577
1142.38034,0.08766
1140.89055,0.10626
1139.40076,0.08484
1137.91097,0.09271
1136.42118,0.10214
1134.93140,0.11340
1133.44161,0.12469
1131.95182,0.12240
1130.46203,0.11192
1128.97224,0.12765
1127.48245,0.14289
1125.99266,0.14943
1124.50288,0.17653
1123.01309,0.17902
1121.52330,0.18154
1120.03351,0.14815
1118.54372,0.19589
1117.05393,0.19643
1115.56415,0.21599
1114.07436,0.26330
1112.58457,0.26315
1111.09478,0.26303
1109.60499,0.29348
1108.11520,0.34397
1106.62542,0.32622
1105.13563,0.37831
1103.64584,0.44427
1102.15605,0.43277
1100.66626,0.44413
1099.17647,0.45551
1097.68668,0.49079
1096.19690,0.54612
1094.70711,0.55322
1093.21732,0.55522
1091.72753,0.58907
1090.23774,0.61396
1088.74795,0.63888
1087.25817,0.64817
1085.76838,0.64568
1084.27859,0.66375
1082.78880,0.63206
1081.29901,0.68303
1079.80922,0.69707
1078.31943,0.71037
1076.82965,0.72370
1075.33986,0.71781
1073.85007,0.65702
1072.36028,0.64605
1070.87049,0.58173
1069.38070,0.58928
1067.89092,0.59122
1066.40113,0.59319
1064.91134,0.56079
1063.42155,0.56897
1061.93176,0.51353
1060.44197,0.43246
1058.95219,0.41711
1057.46240,0.41179
1055.97261,0.40650
1054.48282,0.35838
1052.99303,0.29284
1051.50324,0.31304
1050.01345,0.27219
1048.52367,0.25548
1047.03388,0.25703
1045.54409,0.25860
1044.05430,0.22504
1042.56451,0.21101
1041.07472,0.17134
1039.58494,0.19534
1038.09515,0.14906
1036.60536,0.16285
1035.11557,0.17667
1033.62578,0.17563
1032.13599,0.19053
1030.64620,0.16388
1029.15642,0.17576
1027.66663,0.19715
1026.17684,0.21857
1024.68705,0.24233
1023.19726,0.24713
1021.70747,0.27864
1020.21769,0.28554
1018.72790,0.30735
1017.23811,0.32740
1015.74832,0.34746
1014.25853,0.37706
1012.76874,0.46775
1011.27896,0.48200
1009.78917,0.56710
1008.29938,0.65583
1006.80959,0.70172
1005.31980,0.74764
1003.83001,0.80668
1002.34022,0.98327
1000.85044,1.12962
999.36065,1.27393
997.87086,1.34950
996.38107,1.42509
994.89128,1.52791
993.40149,1.61485
991.91171,1.74698
990.42192,1.83705
988.93213,1.90867
987.44234,1.92053
985.95255,1.93241
984.46276,2.00000
982.97297,1.91775
981.48319,1.89558
979.99340,1.88062
978.50361,1.86953
977.01382,1.85848
975.52403,1.95703
974.03424,1.92164
972.54446,1.79082
971.05467,1.70570
969.56488,1.64628
968.07509,1.60433
966.58530,1.56240
965.09551,1.48971
963.60573,1.47145
962.11594,1.42910
960.62615,1.44066
959.13636,1.38887
957.64657,1.33710
956.15678,1.21683
954.66699,1.19976
953.17721,1.15038
951.68742,1.07588
950.19763,1.04066
948.70784,1.00548
947.21805,0.94902
945.72826,1.02552
944.23848,0.96552
942.74869,0.90093
941.25890,0.87640
939.76911,0.86961
938.27932,0.86284
936.78953,0.87534
935.29974,0.89352
933.80996,0.88452
932.32017,0.87452
930.83038,0.89612
929.34059,0.91774
927.85080,0.96992
926.36101,0.91897
924.87123,0.95479
923.38144,0.97626
921.89165,0.99314
920.40186,1.01004
918.91207,1.08446
917.42228,1.07627
915.93250,1.08812
914.44271,1.18520
912.95292,1.21122
911.46313,1.23727
909.97334,1.25334
908.48355,1.28945
906.99376,1.32661
905.50398,1.44592
904.01419,1.44926
902.52440,1.45263
901.03461,1.53353
899.54482,1.52309
898.05503,1.54348
896.56525,1.52847
895.07546,1.53249
893.58567,1.53653
892.09588,1.48209
890.60609,1.45333
889.11630,1.41691
887.62651,1.38718
886.13673,1.38006
884.64694,1.37298
883.15715,1.30894
881.66736,1.26803
880.17757,1.18865
878.68778,1.12880
877.19800,1.06898
875.70821,0.97172
874.21842,0.88988
872.72863,0.80858
871.23884,0.75811
869.74905,0.73101
868.25927,0.70394
866.76948,0.66997
865.27969,0.62935
863.78990,0.61956
862.30011,0.52151
860.81032,0.49996
859.32053,0.47844
857.83075,0.39536
856.34096,0.39032
854.85117,0.35297
853.36138,0.32437
851.87159,0.30273
850.38180,0.28111
848.89202,0.24592
847.40223,0.20306
845.91244,0.14739
844.42265,0.13384
842.93286,0.12031
841.44307,0.11810
839.95329,0.09283
838.46350,0.11890
836.97371,0.10959
835.48392,0.09132
833.99413,0.07308
832.50434,0.09669
831.01455,0.07465
829.52477,0.02801
828.03498,0.03836
826.54519,0.03873
825.05540,0.03912
823.56561,0.07368
822.07582,0.03384
820.58604,0.04945
819.09625,0.03969
817.60646,0.02996
816.11667,0.04001
814.62688,0.03725
813.13709,0.01759
811.64730,0.01027
810.15752,0.00990
808.66773,0.00955
807.17794,0.02659
805.68815,0.03698
804.19836,0.05253
802.70857,0.05682
801.21879,0.06113
799.72900,0.08241
798.23921,0.12373
796.74942,0.13017
795.25963,0.16436
793.76984,0.19858
792.28006,0.19484
790.79027,0.23988
789.30048,0.23106
787.81069,0.24178
786.32090,0.24225
784.83111,0.24275
783.34132,0.28177
781.85154,0.25564
780.36175,0.29009
778.87196,0.31149
777.38217,0.33291
775.89238,0.34075
774.40259,0.39533
772.91281,0.32419
771.42302,0.33494
769.93323,0.34572
768.44344,0.37782
766.95365,0.35400
765.46386,0.35023
763.97407,0.28182
762.48429,0.27348
760.99450,0.26517
759.50471,0.22866
758.01492,0.19628
756.52513,0.16033
755.03534,0.12672
753.54556,0.09314
752.05577,0.08139
750.56598,0.07019
749.07619,0.05491
747.58640,0.05608
746.09661,0.05727
744.60683,0.03950
743.11704,0.04897
741.62725,0.01380
740.13746,0.01921
738.64767,0.02464
737.15788,0.02241
735.66809,0.02430
734.17831,0.04060
732.68852,0.03895
731.19873,0.03734
729.70894,0.03318
728.21915,0.02289
726.72936,0.01879
725.23958,0.02857
723.74979,0.02658
722.26000,0.02461
720.77021,0.02780
719.28042,0.03820
717.79063,0.03734
716.30084,0.03419
714.81106,0.03107
713.32127,0.01027
711.83148,0.01153
710.34169,0.03489
708.85190,0.04827
707.36211,0.06167
705.87233,0.03225
704.38254,0.01106
702.89275,0.02911
701.40296,0.03257
699.91317,0.03605
698.42338,0.04186
696.93360,0.08466
695.44381,0.06743
693.95402,0.07051
692.46423,0.07361
690.97444,0.03028
689.48465,0.00752
687.99486,0.03456
686.50508,0.03264
685.01529,0.03074
683.52550,0.06710
682.03571,0.03780
680.54592,0.02340
679.05613,0.01904
677.56635,0.01471
676.07656,0.02552
674.58677,0.01224
673.09698,0.01027
671.60719,0.01329
670.11740,0.01633
668.62761,0.03378
667.13783,0.04149
665.64804,0.03923
664.15825,0.03699
662.66846,0.02477
661.17867,0.01515
659.68888,0.02505
658.19910,0.02549
656.70931,0.02595
655.21952,0.02362
653.72973,0.02644
652.23994,0.02057
650.75015,0.05270
649.26037,0.08486
647.77058,0.06932
646.28079,0.06304
644.79100,0.04242
643.30121,0.04132
641.81142,0.04026
640.32163,0.04127
638.83185,0.02486
637.34206,0.02747
635.85227,0.04036
634.36248,0.05329
632.87269,0.04622
631.38290,0.01301
629.89312,0.03577
628.40333,0.04700
626.91354,0.05826
625.42375,0.01027
623.93396,0.03506
622.44417,0.03189
620.95438,0.02876
619.46460,0.06748
617.97481,0.07749
616.48502,0.08033
614.99523,0.08398
613.50544,0.08765
612.01565,0.06594
610.52587,0.10379
609.03608,0.08111
607.54629,0.08848
606.05650,0.09588
604.56671,0.11280
603.07692,0.10819
601.58714,0.10642
600.09735,0.10469
598.60756,0.06680
597.11777,0.05408
595.62798,0.07167
594.13819,0.07133
592.64840,0.07101
591.15862,0.10100
589.66883,0.14590
588.17904,0.14772
586.68925,0.17086
585.19946,0.19403
583.70967,0.22056
582.21989,0.24148
580.73010,0.23034
579.24031,0.21922
577.75052,0.25818
576.26073,0.25867
574.77094,0.31924
573.28115,0.32466
571.79137,0.33010
570.30158,0.40820
568.81179,0.43141
567.32200,0.46311
565.83221,0.49484
564.34242,0.57613
562.85264,0.61227
561.36285,0.64793
559.87306,0.65231
558.38327,0.65671
556.89348,0.71965
555.40369,0.73694
553.91391,0.77966
552.42412,0.82241
550.93433,0.83978
549.44454,0.85409
547.95475,0.89461
546.46496,0.90411
544.97517,0.91363
543.48539,0.93215
541.99560,0.92043
540.50581,0.91437
539.01602,0.90834
537.52623,0.96701
536.03644,0.96925
534.54666,0.95099
533.05687,0.93814
531.56708,0.92532
530.07729,0.85734
528.58750,0.89821
527.09771,0.86032
525.60792,0.82245
524.11814,0.79924
522.62835,0.77144
521.13856,0.73032
519.64877,0.72207
518.15898,0.71385
516.66919,0.61070
515.17941,0.53171
513.68962,0.54615
512.19983,0.56062
510.71004,0.50634
509.22025,0.46338
507.73046,0.38863
506.24068,0.35547
504.75089,0.32234
503.26110,0.34262
501.77131,0.29723
500.28152,0.27444
498.79173,0.25169
497.30194,0.24487
495.81216,0.25194
494.32237,0.23106
492.83258,0.21020
491.34279,0.20606
489.85300,0.18449
488.36321,0.17321
486.87343,0.15247
485.38364,0.13175
483.89385,0.11952
482.40406,0.17405
480.91427,0.16419
479.42448,0.15435
477.93469,0.13351
476.44491,0.08447
474.95512,0.07882
473.46533,0.07320
471.97554,0.13048
470.48575,0.11285
468.99596,0.16762
467.50618,0.15466
466.01639,0.14173
464.52660,0.08469
463.03681,0.15240
461.54702,0.14057
460.05723,0.12878
458.56745,0.12727
457.07766,0.20587
455.58787,0.19287
454.09808,0.17989
452.60829,0.20724
451.11850,0.24282
449.62871,0.25149
448.13893,0.26018
446.64914,0.33793
445.15935,0.33410
443.66956,0.40729
442.17977,0.44227
440.68998,0.47727
439.20020,0.53976
437.71041,0.56070
436.22062,0.56139
434.73083,0.56211
433.24104,0.68168
431.75125,0.78587
430.26146,0.78975
428.77168,0.79366
427.28189,0.79015
425.79210,0.80720
424.30231,0.79938
422.81252,0.79159
421.32273,0.87904
419.83295,0.97729
418.34316,0.98061
416.85337,0.98396
415.36358,0.87391
413.87379,0.85576
412.38400,0.85714
410.89422,0.85854
409.40443,0.88974
407.91464,0.86451
406.42485,0.91270
404.93506,0.90703
403.44527,0.90138
401.95548,0.90500
400.46570,0.83987
398.97591,0.85201
397.48612,0.86418
395.99633,0.91512
394.50654,0.92863
393.01675,0.90802
391.52697,0.88745
390.03718,0.87434
388.54739,0.85408
387.05760,0.81742
385.56781,0.78078
384.07802,0.72929
382.58824,0.65370
381.09845,0.65693
379.60866,0.66017
378.11887,0.64626
376.62908,0.57642
375.13929,0.55511
373.64950,0.53383
372.15972,0.43739
370.66993,0.38254
369.18014,0.36494
367.69035,0.34736
366.20056,0.34905
364.71077,0.32665
363.22099,0.29786
361.73120,0.26909
360.24141,0.18312
358.75162,0.16186
357.26183,0.15986
355.77204,0.15789
354.28225,0.13054
352.79247,0.11708
351.30268,0.13701
349.81289,0.15696
348.32310,0.07891
346.83331,0.06196
345.34352,0.06864
343.85374,0.07536
342.36395,0.07748
340.87416,0.04986
339.38437,0.05280
337.89458,0.05578
336.40479,0.01027
334.91501,0.04283
333.42522,0.02769
331.93543,0.01257
330.44564,0.02623
328.95585,0.05530
327.46606,0.06439
325.97627,0.07350
324.48649,0.08932
322.99670,0.05075
321.50691,0.04224
320.01712,0.03375
318.52733,0.04659
317.03754,0.01070
315.54776,0.01179
314.05797,0.01290
312.56818,0.02534
311.07839,0.01984
309.58860,0.02976
308.09881,0.03971
306.60902,0.04763
305.11924,0.06020
303.62945,0.05996
302.13966,0.04742
300.64987,0.01027
299.16008,0.01027
