1778.52000,0.09872
1777.03021,0.07251
1775.54042,0.00293
1774.05063,0.09904
1772.56085,0.01374
1771.07106,0.16513
1769.58127,0.11932
1768.09148,0.06170
1766.60169,0.05539
1765.11190,0.00177
1763.62212,0.09807
1762.13233,0.02084
1760.64254,0.03041
1759.15275,0.18201
1757.66296,0.21135
1756.17317,0.07899
1754.68339,0.08472
1753.19360,0.09442
1751.70381,0.05681
1750.21402,0.06262
1748.72423,0.12762
1747.23444,0.21631
1745.74465,0.02102
1744.25487,0.17683
1742.76508,0.13938
1741.27529,0.17295
1739.78550,0.04088
1738.29571,0.14945
1736.80592,0.08054
1735.31614,0.11027
1733.82635,0.05720
1732.33656,0.07515
1730.84677,0.14440
1729.35698,0.11507
1727.86719,0.12127
1726.37740,0.20638
1724.88762,0.15346
1723.39783,0.12817
1721.90804,0.03585
1720.41825,0.10135
1718.92846,0.09192
1717.43867,0.11013
1715.94889,0.14414
1714.45910,0.13085
1712.96931,0.13335
1711.47952,0.00177
1709.98973,0.11478
1708.49994,0.28698
1707.01016,0.21465
1705.52037,0.14234
1704.03058,0.31462
1702.54079,0.14374
1701.05100,0.20957
1699.56121,0.12948
1698.07142,0.19141
1696.58164,0.24154
1695.09185,0.12602
1693.60206,0.10914
1692.11227,0.15146
1690.62248,0.23719
1689.13269,0.22038
1687.64291,0.09711
1686.15312,0.21447
1684.66333,0.17408
1683.17354,0.21261
1681.68375,0.19593
1680.19396,0.17140
1678.70417,0.21000
1677.21439,0.11846
1675.72460,0.16106
1674.23481,0.13663
1672.74502,0.08461
1671.25523,0.15490
1669.76544,0.16999
1668.27566,0.15750
1666.78587,0.21209
1665.29608,0.18387
1663.80629,0.14384
1662.31650,0.18273
1660.82671,0.19403
1659.33693,0.20930
1657.84714,0.22065
1656.35735,0.25965
1654.86756,0.17244
1653.37777,0.18781
1651.88798,0.06121
1650.39819,0.23442
1648.90841,0.10787
1647.41862,0.17857
1645.92883,0.16647
1644.43904,0.15439
1642.94925,0.22122
1641.45946,0.12241
1639.96968,0.16958
1638.47989,0.11421
1636.99010,0.18904
1635.50031,0.19684
1634.01052,0.15732
1632.52073,0.22040
1631.03094,0.20460
1629.54116,0.07839
1628.05137,0.19282
1626.56158,0.16527
1625.07179,0.17720
1623.58200,0.12209
1622.09221,0.09067
1620.60243,0.08295
1619.11264,0.21331
1617.62285,0.09914
1616.13306,0.13094
1614.64327,0.10754
1613.15348,0.11967
1611.66370,0.16338
1610.17391,0.06117
1608.68412,0.12860
1607.19433,0.14478
1605.70454,0.19254
1604.21475,0.12593
1602.72496,0.05936
1601.23518,0.21370
1599.74539,0.04855
1598.25560,0.00177
1596.76581,0.19912
1595.27602,0.19532
1593.78623,0.05348
1592.29645,0.20357
1590.80666,0.09334
1589.31687,0.09753
1587.82708,0.18064
1586.33729,0.08233
1584.84750,0.12604
1583.35771,0.17373
1581.86793,0.05971
1580.37814,0.17056
1578.88835,0.06054
1577.39856,0.06099
1575.90877,0.09302
1574.41898,0.16848
1572.92920,0.21634
1571.43941,0.07095
1569.94962,0.09323
1568.45983,0.11553
1566.97004,0.00177
1565.48025,0.15871
1563.99047,0.15000
1562.50068,0.01115
1561.01089,0.14844
1559.52110,0.16742
1558.03131,0.15092
1556.54152,0.10289
1555.05173,0.14562
1553.56195,0.05426
1552.07216,0.08520
1550.58237,0.00177
1549.09258,0.12092
1547.60279,0.18880
1546.11300,0.31589
1544.62322,0.26155
1543.13343,0.23090
1541.64364,0.11744
1540.15385,0.10657
1538.66406,0.09572
1537.17427,0.10068
1535.68448,0.06621
1534.19470,0.15406
1532.70491,0.08414
1531.21512,0.09315
1529.72533,0.07457
1528.23554,0.05995
1526.74575,0.12821
1525.25597,0.11365
1523.76618,0.09517
1522.27639,0.03333
1520.78660,0.05829
1519.29681,0.11878
1517.80702,0.08068
1516.31724,0.07022
1514.82745,0.09529
1513.33766,0.07699
1511.84787,0.05872
1510.35808,0.04836
1508.86829,0.02620
1507.37850,0.01590
1505.88872,0.06873
1504.39893,0.06637
1502.90914,0.07586
1501.41935,0.03016
1499.92956,0.16199
1498.43977,0.10056
1496.94999,0.10227
1495.46020,0.05273
1493.97041,0.12944
1492.48062,0.06023
1490.99083,0.20404
1489.50104,0.11910
1488.01125,0.12097
1486.52147,0.12286
1485.03168,0.13661
1483.54189,0.15828
1482.05210,0.19969
1480.56231,0.22141
1479.07252,0.31021
1477.58274,0.24520
1476.09295,0.30644
1474.60316,0.23754
1473.11337,0.28700
1471.62358,0.17081
1470.13379,0.29921
1468.64401,0.19885
1467.15422,0.23264
1465.66443,0.23292
1464.17464,0.23323
1462.68485,0.16847
1461.19506,0.13530
1459.70527,0.09033
1458.21549,0.08088
1456.72570,0.14640
1455.23591,0.16067
1453.74612,0.08423
1452.25633,0.12222
1450.76654,0.16023
1449.27676,0.05627
1447.78697,0.09039
1446.29718,0.17582
1444.80739,0.09757
1443.31760,0.01935
1441.82781,0.02202
1440.33802,0.08388
1438.84824,0.08660
1437.35845,0.04990
1435.86866,0.04083
1434.37887,0.00418
1432.88908,0.03462
1431.39929,0.07691
1429.90951,0.00484
1428.41972,0.09452
1426.92993,0.14873
1425.44014,0.13590
1423.95035,0.13888
1422.46056,0.14188
1420.97078,0.09758
1419.48099,0.11641
1417.99120,0.18260
1416.50141,0.15810
1415.01162,0.15334
1413.52183,0.13283
1412.03204,0.10841
1410.54226,0.22207
1409.05247,0.20163
1407.56268,0.26801
1406.07289,0.19635
1404.58310,0.15430
1403.09331,0.11228
1401.60353,0.28921
1400.11374,0.27288
1398.62395,0.32757
1397.13416,0.33496
1395.64437,0.25165
1394.15458,0.29459
1392.66479,0.28233
1391.17501,0.17543
1389.68522,0.22634
1388.19543,0.26150
1386.70564,0.19609
1385.21585,0.13071
1383.72606,0.16989
1382.23628,0.26826
1380.74649,0.16943
1379.25670,0.15346
1377.76691,0.29136
1376.27712,0.17288
1374.78733,0.27533
1373.29755,0.38174
1371.80776,0.51974
1370.31797,0.53943
1368.82818,0.60450
1367.33839,0.66960
1365.84860,0.89449
1364.35881,0.88272
1362.86903,0.79209
1361.37924,1.08411
1359.88945,0.92647
1358.39966,1.08048
1356.90987,0.87161
1355.42008,0.92312
1353.93030,0.89181
1352.44051,0.93153
1350.95072,0.97128
1349.46093,0.80199
1347.97114,0.59328
1346.48135,0.45954
1344.99156,0.47178
1343.50178,0.37359
1342.01199,0.32672
1340.52220,0.22464
1339.03241,0.26065
1337.54262,0.21385
1336.05283,0.25977
1334.56305,0.30571
1333.07326,0.25110
1331.58347,0.37402
1330.09368,0.20901
1328.60389,0.20970
1327.11410,0.17097
1325.62432,0.21510
1324.13453,0.14092
1322.64474,0.09043
1321.15495,0.17409
1319.66516,0.12365
1318.17537,0.07324
1316.68558,0.18064
1315.19580,0.04745
1313.70601,0.16673
1312.21622,0.12826
1310.72643,0.00698
1309.23664,0.06323
1307.74685,0.08006
1306.25707,0.19158
1304.76728,0.16113
1303.27749,0.13070
1301.78770,0.06479
1300.29791,0.12514
1298.80812,0.22891
1297.31834,0.08814
1295.82855,0.13278
1294.33876,0.13801
1292.84897,0.15904
1291.35918,0.18405
1289.86939,0.14596
1288.37960,0.10790
1286.88982,0.11326
1285.40003,0.12654
1283.91024,0.00177
1282.42045,0.08115
1280.93066,0.18422
1279.44087,0.18475
1277.95109,0.01175
1276.46130,0.12673
1274.97151,0.11156
1273.48172,0.09643
1271.99193,0.06159
1270.50214,0.07411
1269.01235,0.00777
1267.52257,0.15446
1266.03278,0.13551
1264.54299,0.30197
1263.05320,0.14106
1261.56341,0.11824
1260.07362,0.09544
1258.58384,0.09634
1257.09405,0.18405
1255.60426,0.20077
1254.11447,0.07947
1252.62468,0.14358
1251.13489,0.12488
1249.64511,0.15355
1248.15532,0.15068
1246.66553,0.14192
1245.17574,0.13319
1243.68595,0.15013
1242.19616,0.12370
1240.70637,0.15646
1239.21659,0.16164
1237.72680,0.02484
1236.23701,0.01823
1234.74722,0.14577
1233.25743,0.10175
1231.76764,0.05775
1230.27786,0.13803
1228.78807,0.13944
1227.29828,0.06594
1225.80849,0.24096
1224.31870,0.19512
1222.82891,0.10197
1221.33912,0.13507
1219.84934,0.14255
1218.35955,0.15007
1216.86976,0.17141
1215.37997,0.16911
1213.89018,0.09584
1212.40039,0.16460
1210.91061,0.13082
1209.42082,0.14441
1207.93103,0.11660
1206.44124,0.08882
1204.95145,0.09064
1203.46166,0.00177
1201.97188,0.14867
1200.48209,0.16148
1198.99230,0.18220
1197.50251,0.10827
1196.01272,0.18822
1194.52293,0.14196
1193.03314,0.09572
1191.54336,0.14418
1190.05357,0.09406
1188.56378,0.16230
1187.07399,0.00177
1185.58420,0.06874
1184.09441,0.10813
1182.60463,0.12190
1181.11484,0.13569
1179.62505,0.00948
1178.13526,0.12391
1176.64547,0.02931
1175.15568,0.01362
1173.66589,0.17547
1172.17611,0.10067
1170.68632,0.10281
1169.19653,0.10498
1167.70674,0.12098
1166.21695,0.04628
1164.72716,0.33056
1163.23738,0.03896
1161.74759,0.14185
1160.25780,0.03175
1158.76801,0.01832
1157.27822,0.00492
1155.78843,0.00535
1154.29865,0.12414
1152.80886,0.11673
1151.31907,0.21585
1149.82928,0.13749
1148.33949,0.07888
1146.84970,0.13074
1145.35991,0.18263
1143.87013,0.10043
1142.38034,0.13660
1140.89055,0.20040
1139.40076,0.11038
1137.91097,0.19002
1136.42118,0.25784
1134.93140,0.27835
1133.44161,0.29889
1131.95182,0.20901
1130.46203,0.18621
1128.97224,0.10821
1127.48245,0.14858
1125.99266,0.29153
1124.50288,0.24517
1123.01309,0.17910
1121.52330,0.11307
1120.03351,0.24035
1118.54372,0.25326
1117.05393,0.19913
1115.56415,0.33438
1114.07436,0.31975
1112.58457,0.33276
1111.09478,0.34580
1109.60499,0.27998
1108.11520,0.34829
1106.62542,0.36535
1105.13563,0.44555
1103.64584,0.51789
1102.15605,0.54291
1100.66626,0.56797
1099.17647,0.59305
1097.68668,0.45642
1096.19690,0.63145
1094.70711,0.66450
1093.21732,0.55950
1091.72753,0.69911
1090.23774,0.67898
1088.74795,0.65888
1087.25817,0.77489
1085.76838,0.83570
1084.27859,0.79004
1082.78880,0.59450
1081.29901,0.65539
1079.80922,0.71631
1078.31943,0.72992
1076.82965,0.74355
1075.33986,0.65465
1073.85007,0.70384
1072.36028,0.73333
1070.87049,0.69184
1069.38070,0.52415
1067.89092,0.61683
1066.40113,0.70954
1064.91134,0.64054
1063.42155,0.72541
1061.93176,0.59730
1060.44197,0.50471
1058.95219,0.57782
1057.46240,0.59574
1055.97261,0.61368
1054.48282,0.44625
1052.99303,0.41691
1051.50324,0.38365
1050.01345,0.36619
1048.52367,0.26987
1047.03388,0.34910
1045.54409,0.42837
1044.05430,0.34001
1042.56451,0.32662
1041.07472,0.23832
1039.58494,0.21710
1038.09515,0.18407
1036.60536,0.22010
1035.11557,0.25615
1033.62578,0.29026
1032.13599,0.28494
1030.64620,0.22049
1029.15642,0.23495
1027.66663,0.23957
1026.17684,0.24422
1024.68705,0.27454
1023.19726,0.24966
1021.70747,0.22481
1020.21769,0.37354
1018.72790,0.34873
1017.23811,0.42454
1015.74832,0.50038
1014.25853,0.39676
1012.76874,0.53379
1011.27896,0.52095
1009.78917,0.46080
1008.29938,0.66496
1006.80959,0.70348
1005.31980,0.74202
1003.83001,0.97387
1002.34022,0.93752
1000.85044,1.15759
999.36065,1.28302
997.87086,1.33549
996.38107,1.38800
994.89128,1.52928
993.40149,1.73370
991.91171,1.80403
990.42192,1.93356
988.93213,2.00000
987.44234,1.87121
985.95255,1.74244
984.46276,1.88785
982.97297,1.79266
981.48319,1.75273
979.99340,1.80355
978.50361,1.76169
977.01382,1.71986
975.52403,1.82203
974.03424,1.68361
972.54446,1.72273
971.05467,1.63169
969.56488,1.51307
968.07509,1.42012
966.58530,1.32719
965.09551,1.33882
963.60573,1.38203
962.11594,1.42132
960.62615,1.22002
959.13636,1.21203
957.64657,1.20407
956.15678,1.14880
954.66699,0.99888
953.17721,1.08171
951.68742,1.03835
950.19763,1.00488
948.70784,0.97143
947.21805,0.95181
945.72826,0.95589
944.23848,0.74304
942.74869,0.84578
941.25890,0.76710
939.76911,0.70619
938.27932,0.64531
936.78953,0.82310
935.29974,0.85103
933.80996,0.87109
932.32017,0.85568
930.83038,0.84620
929.34059,0.83676
927.85080,0.86087
926.36101,0.80217
924.87123,1.03933
923.38144,0.91757
921.89165,0.92206
920.40186,0.92658
918.91207,1.06918
917.42228,1.06191
915.93250,1.11779
914.44271,1.06718
912.95292,1.08760
911.46313,1.10805
909.97334,1.27053
908.48355,1.22398
906.99376,1.46934
905.50398,1.45834
904.01419,1.57162
902.52440,1.68492
901.03461,1.56749
899.54482,1.64337
898.05503,1.64433
896.56525,1.49148
895.07546,1.53982
893.58567,1.58819
892.09588,1.41964
890.60609,1.49567
889.11630,1.39817
887.62651,1.43087
886.13673,1.38076
884.64694,1.33067
883.15715,1.44628
881.66736,1.26213
880.17757,1.15295
878.68778,1.13847
877.19800,1.12401
875.70821,1.07802
874.21842,0.86245
872.72863,1.00979
871.23884,0.85738
869.74905,0.77008
868.25927,0.68280
866.76948,0.82237
865.27969,0.65822
863.78990,0.72289
862.30011,0.45229
860.81032,0.44206
859.32053,0.43186
857.83075,0.69781
856.34096,0.57326
854.85117,0.40536
853.36138,0.38737
851.87159,0.40885
850.38180,0.43036
848.89202,0.29806
847.40223,0.28412
845.91244,0.17554
844.42265,0.14587
842.93286,0.11623
841.44307,0.06295
839.95329,0.10831
838.46350,0.13791
836.97371,0.17938
835.48392,0.14001
833.99413,0.10066
832.50434,0.18165
831.01455,0.23111
829.52477,0.26087
828.03498,0.04609
826.54519,0.09168
825.05540,0.13730
823.56561,0.21055
822.07582,0.14183
820.58604,0.12441
819.09625,0.12083
817.60646,0.11726
816.11667,0.13542
814.62688,0.18517
813.13709,0.01798
811.64730,0.09539
810.15752,0.04857
808.66773,0.00177
807.17794,0.15309
805.68815,0.07564
804.19836,0.14417
802.70857,0.16736
801.21879,0.19058
799.72900,0.14479
798.23921,0.16609
796.74942,0.27814
795.25963,0.28174
793.76984,0.28536
792.28006,0.31465
790.79027,0.38341
789.30048,0.30625
787.81069,0.35929
786.32090,0.29993
784.83111,0.24059
783.34132,0.31737
781.85154,0.29556
780.36175,0.44340
778.87196,0.44334
777.38217,0.44330
775.89238,0.61094
774.40259,0.44331
772.91281,0.53999
771.42302,0.56570
769.93323,0.59143
768.44344,0.44363
766.95365,0.43391
765.46386,0.46367
763.97407,0.42639
762.48429,0.46409
760.99450,0.50181
759.50471,0.33444
758.01492,0.30516
756.52513,0.29562
755.03534,0.28809
753.54556,0.28058
752.05577,0.20012
750.56598,0.25774
749.07619,0.18917
747.58640,0.20149
746.09661,0.21383
744.60683,0.13350
743.11704,0.17547
741.62725,0.17803
740.13746,0.08989
738.64767,0.00177
737.15788,0.15154
735.66809,0.18299
734.17831,0.16319
732.68852,0.17103
731.19873,0.17889
729.70894,0.04873
728.21915,0.15525
726.72936,0.16320
725.23958,0.23822
723.74979,0.14168
722.26000,0.04517
720.77021,0.10844
719.28042,0.07706
717.79063,0.16011
716.30084,0.11893
714.81106,0.07777
713.32127,0.02677
711.83148,0.07442
710.34169,0.03136
708.85190,0.13231
707.36211,0.23329
705.87233,0.03253
704.38254,0.10003
702.89275,0.02160
701.40296,0.01618
699.91317,0.01078
698.42338,0.09022
696.93360,0.19729
695.44381,0.23733
693.95402,0.21823
692.46423,0.19915
690.97444,0.25900
689.48465,0.05063
687.99486,0.07108
686.50508,0.14875
685.01529,0.22645
683.52550,0.10102
682.03571,0.00324
680.54592,0.15004
679.05613,0.13120
677.56635,0.11238
676.07656,0.02259
674.58677,0.04721
673.09698,0.12709
671.60719,0.14782
670.11740,0.16858
668.62761,0.10653
667.13783,0.08789
665.64804,0.07125
664.15825,0.05464
662.66846,0.00058
661.17867,0.00177
659.68888,0.11991
658.19910,0.13158
656.70931,0.14327
655.21952,0.11949
653.72973,0.11940
652.23994,0.16273
650.75015,0.15677
649.26037,0.15084
647.77058,0.15085
646.28079,0.12722
644.79100,0.26535
643.30121,0.19049
641.81142,0.11566
640.32163,0.10003
638.83185,0.11597
637.34206,0.00177
635.85227,0.03023
634.36248,0.05872
632.87269,0.15626
631.38290,0.13944
629.89312,0.17392
628.40333,0.12559
626.91354,0.07728
625.42375,0.01717
623.93396,0.01625
622.44417,0.04692
620.95438,0.07761
619.46460,0.08860
617.97481,0.16274
616.48502,0.07912
614.99523,0.18091
613.50544,0.28273
612.01565,0.17552
610.52587,0.23401
609.03608,0.00851
607.54629,0.08282
606.05650,0.15716
604.56671,0.15263
603.07692,0.16786
601.58714,0.09435
600.09735,0.02088
598.60756,0.02434
597.11777,0.03573
595.62798,0.15364
594.13819,0.11379
592.64840,0.07397
591.15862,0.13674
589.66883,0.22319
588.17904,0.19134
586.68925,0.14571
585.19946,0.10010
583.70967,0.24583
582.21989,0.30086
580.73010,0.28295
579.24031,0.26505
577.75052,0.29649
576.26073,0.35557
574.77094,0.39101
573.28115,0.39097
571.79137,0.39096
570.30158,0.38309
568.81179,0.47385
567.32200,0.49364
565.83221,0.51345
564.34242,0.60430
562.85264,0.55711
561.36285,0.66378
559.87306,0.74089
558.38327,0.81803
556.89348,0.75122
555.40369,0.90139
553.91391,0.93127
552.42412,0.96118
550.93433,0.70513
549.44454,0.91457
547.95475,0.82819
546.46496,0.83059
544.97517,0.83302
543.48539,1.09384
541.99560,1.09435
540.50581,1.01796
539.01602,0.94160
537.52623,1.11180
536.03644,1.09268
534.54666,1.02626
533.05687,0.99931
531.56708,0.97238
530.07729,1.00465
528.58750,1.05273
527.09771,1.02390
525.60792,0.99511
524.11814,1.03143
522.62835,0.89027
521.13856,0.76491
519.64877,0.75396
518.15898,0.74305
516.66919,0.62961
515.17941,0.68974
513.68962,0.66510
512.19983,0.64048
510.71004,0.58237
509.22025,0.55583
507.73046,0.38337
506.24068,0.38449
504.75089,0.38565
503.26110,0.44205
501.77131,0.33675
500.28152,0.43659
498.79173,0.53646
497.30194,0.30896
495.81216,0.24321
494.32237,0.22876
492.83258,0.21434
491.34279,0.20784
489.85300,0.26447
488.36321,0.27380
486.87343,0.22398
485.38364,0.17419
483.89385,0.32560
482.40406,0.30347
480.91427,0.30898
479.42448,0.31452
477.93469,0.15441
476.44491,0.23494
474.95512,0.20309
473.46533,0.17125
471.97554,0.12169
470.48575,0.18655
468.99596,0.14494
467.50618,0.17632
466.01639,0.20773
464.52660,0.17013
463.03681,0.15229
461.54702,0.19758
460.05723,0.24290
458.56745,0.15807
457.07766,0.19950
455.58787,0.19164
454.09808,0.18381
452.60829,0.14642
451.11850,0.27079
449.62871,0.25909
448.13893,0.24742
446.64914,0.46653
445.15935,0.37405
443.66956,0.49460
442.17977,0.48698
440.68998,0.47938
439.20020,0.64340
437.71041,0.60232
436.22062,0.53169
434.73083,0.46108
433.24104,0.66071
431.75125,1.00236
430.26146,0.94761
428.77168,0.89288
427.28189,0.89144
425.79210,0.92552
424.30231,1.00104
422.81252,1.07659
421.32273,1.41842
419.83295,1.28694
418.34316,1.28959
416.85337,1.29227
415.36358,1.04646
413.87379,0.89930
412.38400,0.97503
410.89422,1.05079
409.40443,1.04965
407.91464,1.08404
406.42485,1.18551
404.93506,1.09176
403.44527,0.99803
401.95548,1.00491
400.46570,0.97237
398.97591,0.95958
397.48612,0.94682
395.99633,1.08003
394.50654,1.00420
393.01675,0.97179
391.52697,0.93941
390.03718,0.97016
388.54739,0.82739
387.05760,0.82664
385.56781,0.82591
384.07802,0.88439
382.58824,0.80877
381.09845,0.79629
379.60866,0.78383
378.11887,0.81480
376.62908,0.49077
375.13929,0.51784
373.64950,0.54494
372.15972,0.48528
370.66993,0.34676
369.18014,0.39957
367.69035,0.45241
366.20056,0.56642
364.71077,0.36488
363.22099,0.38032
361.73120,0.39579
360.24141,0.14700
358.75162,0.20197
357.26183,0.24118
355.77204,0.28042
354.28225,0.37097
352.79247,0.29981
351.30268,0.27799
349.81289,0.25619
348.32310,0.25612
346.83331,0.24423
345.34352,0.16926
343.85374,0.09431
342.36395,0.19690
340.87416,0.16934
339.38437,0.09842
337.89458,0.02752
336.40479,0.09865
334.91501,0.08697
333.42522,0.09702
331.93543,0.10709
330.44564,0.04421
328.95585,0.12336
327.46606,0.09801
325.97627,0.07268
324.48649,0.16374
322.99670,0.19566
321.50691,0.20788
320.01712,0.22013
318.52733,0.01940
317.03754,0.04107
315.54776,0.06474
314.05797,0.08843
312.56818,0.07073
311.07839,0.00177
309.58860,0.05572
308.09881,0.10970
306.60902,0.00000
305.11924,0.14467
303.62945,0.11384
302.13966,0.08303
300.64987,0.06211
299.16008,0.00177
