1778.52000,0.02039
1777.03021,0.03353
1775.54042,0.02570
1774.05063,0.02948
1772.56085,0.05066
1771.07106,0.03857
1769.58127,0.02217
1768.09148,0.04198
1766.60169,0.02201
1765.11190,0.02957
1763.62212,0.02268
1762.13233,0.03970
1760.64254,0.00464
1759.15275,0.03619
1757.66296,0.01276
1756.17317,0.00600
1754.68339,0.00000
1753.19360,0.03600
1751.70381,0.04380
1750.21402,0.04729
1748.72423,0.01533
1747.23444,0.00874
1745.74465,0.02171
1744.25487,0.01300
1742.76508,0.02820
1741.27529,0.03040
1739.78550,0.00874
1738.29571,0.05080
1736.80592,0.02702
1735.31614,0.02209
1733.82635,0.02442
1732.33656,0.02027
1730.84677,0.01976
1729.35698,0.01638
1727.86719,0.01520
1726.37740,0.01984
1724.88762,0.03029
1723.39783,0.03932
1721.90804,0.01871
1720.41825,0.00464
1718.92846,0.02888
1717.43867,0.01045
1715.94889,0.04560
1714.45910,0.04676
1712.96931,0.03565
1711.47952,0.01153
1709.98973,0.04028
1708.49994,0.04010
1707.01016,0.02475
1705.52037,0.00943
1704.03058,0.05565
1702.54079,0.03893
1701.05100,0.05264
1699.56121,0.02657
1698.07142,0.03743
1696.58164,0.01431
1695.09185,0.03319
1693.60206,0.05355
1692.11227,0.04570
1690.62248,0.05670
1689.13269,0.06339
1687.64291,0.05056
1686.15312,0.04282
1684.66333,0.04307
1683.17354,0.04986
1681.68375,0.04365
1680.19396,0.05628
1678.70417,0.05013
1677.21439,0.05558
1675.72460,0.05961
1674.23481,0.07959
1672.74502,0.07788
1671.25523,0.08706
1669.76544,0.08975
1668.27566,0.09464
1666.78587,0.07060
1665.29608,0.07265
1663.80629,0.07183
1662.31650,0.09492
1660.82671,0.08040
1659.33693,0.09775
1657.84714,0.09559
1656.35735,0.07825
1654.86756,0.07542
1653.37777,0.08058
1651.88798,0.09372
1650.39819,0.08590
1648.90841,0.05929
1647.41862,0.06094
1645.92883,0.06406
1644.43904,0.06720
1642.94925,0.03925
1641.45946,0.05186
1639.96968,0.04929
1638.47989,0.06630
1636.99010,0.06379
1635.50031,0.05768
1634.01052,0.04292
1632.52073,0.03832
1631.03094,0.05039
1629.54116,0.08927
1628.05137,0.09199
1626.56158,0.06578
1625.07179,0.03236
1623.58200,0.03371
1622.09221,0.02133
1620.60243,0.05458
1619.11264,0.04081
1617.62285,0.05095
1616.13306,0.06402
1614.64327,0.04526
1613.15348,0.05693
1611.66370,0.05125
1610.17391,0.03185
1608.68412,0.03492
1607.19433,0.05683
1605.70454,0.03534
1604.21475,0.03848
1602.72496,0.04165
1601.23518,0.03906
1599.74539,0.01189
1598.25560,0.03830
1596.76581,0.03579
1595.27602,0.04271
1593.78623,0.05980
1592.29645,0.03421
1590.80666,0.03976
1589.31687,0.02870
1587.82708,0.00464
1586.33729,0.01687
1584.84750,0.03855
1583.35771,0.05663
1581.86793,0.03131
1580.37814,0.03859
1578.88835,0.01332
1577.39856,0.01631
1575.90877,0.03018
1574.41898,0.00572
1572.92920,0.02327
1571.43941,0.01478
1569.94962,0.03057
1568.45983,0.04639
1566.97004,0.00976
1565.48025,0.01441
1563.99047,0.02270
1562.50068,0.02669
1561.01089,0.00464
1559.52110,0.03538
1558.03131,0.04081
1556.54152,0.01154
1555.05173,0.04381
1553.56195,0.01748
1552.07216,0.03894
1550.58237,0.05971
1549.09258,0.03564
1547.60279,0.06008
1546.11300,0.09685
1544.62322,0.08588
1543.13343,0.08073
1541.64364,0.05461
1540.15385,0.02961
1538.66406,0.00464
1537.17427,0.02862
1535.68448,0.02512
1534.19470,0.04916
1532.70491,0.04210
1531.21512,0.04013
1529.72533,0.02371
1528.23554,0.03121
1526.74575,0.01774
1525.25597,0.05134
1523.76618,0.00464
1522.27639,0.03837
1520.78660,0.01640
1519.29681,0.02413
1517.80702,0.01307
1516.31724,0.01000
1514.82745,0.03229
1513.33766,0.03433
1511.84787,0.03641
1510.35808,0.03200
1508.86829,0.02327
1507.37850,0.01529
1505.88872,0.02326
1504.39893,0.01823
1502.90914,0.05231
1501.41935,0.00464
1499.92956,0.00964
1498.43977,0.00888
1496.94999,0.01972
1495.46020,0.02698
1493.97041,0.04728
1492.48062,0.05387
1490.99083,0.08002
1489.50104,0.09172
1488.01125,0.09477
1486.52147,0.09784
1485.03168,0.10238
1483.54189,0.13229
1482.05210,0.15788
1480.56231,0.14586
1479.07252,0.21637
1477.58274,0.22901
1476.09295,0.23806
1474.60316,0.25799
1473.11337,0.30473
1471.62358,0.29143
1470.13379,0.28466
1468.64401,0.25476
1467.15422,0.24443
1465.66443,0.24353
1464.17464,0.24266
1462.68485,0.22083
1461.19506,0.16645
1459.70527,0.18376
1458.21549,0.14464
1456.72570,0.12653
1455.23591,0.14536
1453.74612,0.13744
1452.25633,0.10856
1450.76654,0.13399
1449.27676,0.10733
1447.78697,0.11979
1446.29718,0.09753
1444.80739,0.10569
1443.31760,0.11388
1441.82781,0.07795
1440.33802,0.06375
1438.84824,0.02643
1437.35845,0.04993
1435.86866,0.02279
1434.37887,0.02462
1432.88908,0.04965
1431.39929,0.06819
1429.90951,0.05925
1428.41972,0.08580
1426.92993,0.09791
1425.44014,0.09773
1423.95035,0.11061
1422.46056,0.12352
1420.97078,0.15817
1419.48099,0.14652
1417.99120,0.16024
1416.50141,0.17832
1415.01162,0.14576
1413.52183,0.19357
1412.03204,0.19219
1410.54226,0.20966
1409.05247,0.20182
1407.56268,0.21283
1406.07289,0.21300
1404.58310,0.20379
1403.09331,0.19461
1401.60353,0.20862
1400.11374,0.21614
1398.62395,0.26132
1397.13416,0.28410
1395.64437,0.25189
1394.15458,0.26241
1392.66479,0.26066
1391.17501,0.26255
1389.68522,0.27532
1388.19543,0.26351
1386.70564,0.25752
1385.21585,0.25156
1383.72606,0.23983
1382.23628,0.18977
1380.74649,0.18244
1379.25670,0.24028
1377.76691,0.26629
1376.27712,0.34445
1374.78733,0.40454
1373.29755,0.48709
1371.80776,0.53492
1370.31797,0.65733
1368.82818,0.73418
1367.33839,0.81104
1365.84860,0.89662
1364.35881,0.95690
1362.86903,1.05845
1361.37924,1.03555
1359.88945,1.02280
1358.39966,1.04265
1356.90987,1.02996
1355.42008,0.93623
1353.93030,0.89102
1352.44051,0.85091
1350.95072,0.81082
1349.46093,0.65713
1347.97114,0.55485
1346.48135,0.46345
1344.99156,0.39741
1343.50178,0.37338
1342.01199,0.32694
1340.52220,0.31816
1339.03241,0.26960
1337.54262,0.22686
1336.05283,0.23625
1334.56305,0.24568
1333.07326,0.22038
1331.58347,0.19801
1330.09368,0.19015
1328.60389,0.14974
1327.11410,0.13686
1325.62432,0.13848
1324.13453,0.09163
1322.64474,0.10417
1321.15495,0.10876
1319.66516,0.10470
1318.17537,0.10067
1316.68558,0.09087
1315.19580,0.06083
1313.70601,0.08872
1312.21622,0.08263
1310.72643,0.06932
1309.23664,0.07702
1307.74685,0.05436
1306.25707,0.06429
1304.76728,0.06520
1303.27749,0.06614
1301.78770,0.05371
1300.29791,0.08185
1298.80812,0.04342
1297.31834,0.04627
1295.82855,0.05929
1294.33876,0.05640
1292.84897,0.05862
1291.35918,0.04783
1289.86939,0.05335
1288.37960,0.05889
1286.88982,0.03371
1285.40003,0.03678
1283.91024,0.05363
1282.42045,0.00464
1280.93066,0.03501
1279.44087,0.02198
1277.95109,0.05675
1276.46130,0.05391
1274.97151,0.04676
1273.48172,0.03963
1271.99193,0.04121
1270.50214,0.03413
1269.01235,0.05097
1267.52257,0.07145
1266.03278,0.03767
1264.54299,0.06617
1263.05320,0.07949
1261.56341,0.07692
1260.07362,0.07438
1258.58384,0.07186
1257.09405,0.08022
1255.60426,0.05170
1254.11447,0.06591
1252.62468,0.04685
1251.13489,0.03578
1249.64511,0.01678
1248.15532,0.05642
1246.66553,0.04616
1245.17574,0.03592
1243.68595,0.03367
1242.19616,0.03723
1240.70637,0.00464
1239.21659,0.02893
1237.72680,0.03806
1236.23701,0.02043
1234.74722,0.02599
1233.25743,0.02326
1231.76764,0.02055
1230.27786,0.02619
1228.78807,0.04127
1227.29828,0.04913
1225.80849,0.02807
1224.31870,0.02080
1222.82891,0.03598
1221.33912,0.03454
1219.84934,0.03458
1218.35955,0.03465
1216.86976,0.03329
1215.37997,0.02762
1213.89018,0.05454
1212.40039,0.04241
1210.91061,0.02741
1209.42082,0.03053
1207.93103,0.01884
1206.44124,0.00718
1204.95145,0.03209
1203.46166,0.00999
1201.97188,0.01107
1200.48209,0.01074
1198.99230,0.00464
1197.50251,0.02968
1196.01272,0.00916
1194.52293,0.01472
1193.03314,0.02031
1191.54336,0.03823
1190.05357,0.02867
1188.56378,0.01769
1187.07399,0.01108
1185.58420,0.00956
1184.09441,0.04136
1182.60463,0.02398
1181.11484,0.00662
1179.62505,0.01679
1178.13526,0.04146
1176.64547,0.00464
1175.15568,0.05007
1173.66589,0.06947
1172.17611,0.06863
1170.68632,0.05480
1169.19653,0.04099
1167.70674,0.09451
1166.21695,0.05977
1164.72716,0.08295
1163.23738,0.03233
1161.74759,0.05412
1160.25780,0.04771
1158.76801,0.05942
1157.27822,0.07115
1155.78843,0.03877
1154.29865,0.09760
1152.80886,0.06599
1151.31907,0.05105
1149.82928,0.04266
1148.33949,0.09509
1146.84970,0.08855
1145.35991,0.08205
1143.87013,0.07376
1142.38034,0.06115
1140.89055,0.07246
1139.40076,0.09248
1137.91097,0.11614
1136.42118,0.14924
1134.93140,0.13822
1133.44161,0.12722
1131.95182,0.14955
1130.46203,0.12051
1128.97224,0.14144
1127.48245,0.16022
1125.99266,0.16456
1124.50288,0.12622
1123.01309,0.14436
1121.52330,0.16253
1120.03351,0.14961
1118.54372,0.16276
1117.05393,0.18608
1115.56415,0.20291
1114.07436,0.18574
1112.58457,0.22361
1111.09478,0.26151
1109.60499,0.29365
1108.11520,0.32509
1106.62542,0.39780
1105.13563,0.40469
1103.64584,0.38988
1102.15605,0.44097
1100.66626,0.44649
1099.17647,0.45203
1097.68668,0.50609
1096.19690,0.56452
1094.70711,0.59693
1093.21732,0.60692
1091.72753,0.64878
1090.23774,0.64689
1088.74795,0.64502
1087.25817,0.68624
1085.76838,0.70867
1084.27859,0.68698
1082.78880,0.75289
1081.29901,0.72980
1079.80922,0.81024
1078.31943,0.78286
1076.82965,0.75551
1075.33986,0.81504
1073.85007,0.77762
1072.36028,0.69896
1070.87049,0.70356
1069.38070,0.66983
1067.89092,0.69367
1066.40113,0.71754
1064.91134,0.63901
1063.42155,0.64230
1061.93176,0.62898
1060.44197,0.57297
1058.95219,0.49238
1057.46240,0.48710
1055.97261,0.48183
1054.48282,0.43462
1052.99303,0.43955
1051.50324,0.37936
1050.01345,0.37131
1048.52367,0.35750
1047.03388,0.34263
1045.54409,0.32778
1044.05430,0.31550
1042.56451,0.29890
1041.07472,0.29535
1039.58494,0.28966
1038.09515,0.28038
1036.60536,0.27438
1035.11557,0.26841
1033.62578,0.24980
1032.13599,0.26885
1030.64620,0.23799
1029.15642,0.26651
1027.66663,0.25850
1026.17684,0.25052
1024.68705,0.25884
1023.19726,0.28023
1021.70747,0.31829
1020.21769,0.32742
1018.72790,0.33079
1017.23811,0.34251
1015.74832,0.35426
1014.25853,0.44094
1012.76874,0.53923
1011.27896,0.65420
1009.78917,0.73662
1008.29938,0.72064
1006.80959,0.78248
1005.31980,0.84436
1003.83001,0.94788
1002.34022,1.05070
1000.85044,1.11374
999.36065,1.17102
997.87086,1.20950
996.38107,1.24802
994.89128,1.34373
993.40149,1.49593
991.91171,1.55841
990.42192,1.58328
988.93213,1.67621
987.44234,1.68810
985.95255,1.70002
984.46276,1.67940
982.97297,1.62551
981.48319,1.64041
979.99340,1.59454
978.50361,1.57583
977.01382,1.55715
975.52403,1.57360
974.03424,1.53725
972.54446,1.55520
971.05467,1.46895
969.56488,1.43630
968.07509,1.40330
966.58530,1.37034
965.09551,1.36164
963.60573,1.31824
962.11594,1.27920
960.62615,1.20762
959.13636,1.20265
957.64657,1.19771
956.15678,1.16674
954.66699,1.04967
953.17721,0.95940
951.68742,1.00161
950.19763,1.01961
948.70784,1.03763
947.21805,1.00320
945.72826,1.01729
944.23848,0.97857
942.74869,0.97897
941.25890,0.99097
939.76911,0.98888
938.27932,0.98682
936.78953,0.95403
935.29974,0.96903
933.80996,1.00288
932.32017,0.98392
930.83038,0.99249
929.34059,1.00109
927.85080,1.01043
926.36101,1.13344
924.87123,1.11751
923.38144,1.11029
921.89165,1.14073
920.40186,1.17120
918.91207,1.25670
917.42228,1.40737
915.93250,1.31416
914.44271,1.43448
912.95292,1.50272
911.46313,1.57099
909.97334,1.65593
908.48355,1.76334
906.99376,1.84761
905.50398,1.84505
904.01419,1.83818
902.52440,1.83133
901.03461,1.87301
899.54482,1.92267
898.05503,1.89130
896.56525,1.98227
895.07546,1.99112
893.58567,2.00000
892.09588,1.98828
890.60609,1.92085
889.11630,1.75646
887.62651,1.66014
886.13673,1.68471
884.64694,1.70931
883.15715,1.59208
881.66736,1.53856
880.17757,1.40546
878.68778,1.34947
877.19800,1.29350
875.70821,1.23068
874.21842,1.08611
872.72863,0.99222
871.23884,0.88606
869.74905,0.83855
868.25927,0.79106
866.76948,0.72407
865.27969,0.63828
863.78990,0.57206
862.30011,0.51310
860.81032,0.51822
859.32053,0.52337
857.83075,0.45509
856.34096,0.43605
854.85117,0.41414
853.36138,0.29165
851.87159,0.29802
850.38180,0.30442
848.89202,0.22037
847.40223,0.22754
845.91244,0.18263
844.42265,0.18117
842.93286,0.17974
841.44307,0.17906
839.95329,0.16466
838.46350,0.13291
836.97371,0.10264
835.48392,0.08433
833.99413,0.06605
832.50434,0.09521
831.01455,0.11571
829.52477,0.10004
828.03498,0.08295
826.54519,0.09087
825.05540,0.09880
823.56561,0.06660
822.07582,0.05541
820.58604,0.00951
819.09625,0.00706
817.60646,0.00464
816.11667,0.01600
814.62688,0.07227
813.13709,0.01638
811.64730,0.04013
810.15752,0.02591
808.66773,0.01172
807.17794,0.02107
805.68815,0.05723
804.19836,0.05072
802.70857,0.06957
801.21879,0.08844
799.72900,0.09648
798.23921,0.13640
796.74942,0.15390
795.25963,0.16202
793.76984,0.17017
792.28006,0.17690
790.79027,0.21044
789.30048,0.24183
787.81069,0.22982
786.32090,0.22182
784.83111,0.21384
783.34132,0.24027
781.85154,0.28555
780.36175,0.25920
778.87196,0.28245
777.38217,0.30573
775.89238,0.35473
774.40259,0.34441
772.91281,0.39347
771.42302,0.40202
769.93323,0.41060
768.44344,0.38084
766.95365,0.33230
765.46386,0.36412
763.97407,0.30911
762.48429,0.28236
760.99450,0.25563
759.50471,0.24775
758.01492,0.21963
756.52513,0.17344
755.03534,0.16890
753.54556,0.16438
752.05577,0.13854
750.56598,0.09246
749.07619,0.07463
747.58640,0.06769
746.09661,0.06077
744.60683,0.07053
743.11704,0.07887
741.62725,0.03512
740.13746,0.02939
738.64767,0.02370
737.15788,0.00464
735.66809,0.04545
734.17831,0.05588
732.68852,0.07286
731.19873,0.08987
729.70894,0.03452
728.21915,0.03204
726.72936,0.04261
725.23958,0.03656
723.74979,0.04683
722.26000,0.05712
720.77021,0.03160
719.28042,0.01481
717.79063,0.02843
716.30084,0.03919
714.81106,0.04998
713.32127,0.05717
711.83148,0.01880
710.34169,0.04052
708.85190,0.03259
707.36211,0.02470
705.87233,0.01465
704.38254,0.00464
702.89275,0.02164
701.40296,0.02636
699.91317,0.03111
698.42338,0.02503
696.93360,0.09352
695.44381,0.07302
693.95402,0.08801
692.46423,0.10302
690.97444,0.04207
689.48465,0.02384
687.99486,0.03821
686.50508,0.02692
685.01529,0.01565
683.52550,0.02504
682.03571,0.02649
680.54592,0.04896
679.05613,0.03599
677.56635,0.02304
676.07656,0.07309
674.58677,0.04500
673.09698,0.00464
671.60719,0.02339
670.11740,0.04217
668.62761,0.05699
667.13783,0.06967
665.64804,0.07369
664.15825,0.07774
662.66846,0.04852
661.17867,0.01860
659.68888,0.05747
658.19910,0.05258
656.70931,0.04772
655.21952,0.00922
653.72973,0.03734
652.23994,0.05463
650.75015,0.04806
649.26037,0.04152
647.77058,0.04731
646.28079,0.09728
644.79100,0.10891
643.30121,0.08222
641.81142,0.05554
640.32163,0.02311
638.83185,0.01169
637.34206,0.00464
635.85227,0.01288
634.36248,0.02116
632.87269,0.05588
631.38290,0.04503
629.89312,0.03999
628.40333,0.04114
626.91354,0.04231
625.42375,0.05545
623.93396,0.06717
622.44417,0.07783
620.95438,0.08851
619.46460,0.05834
617.97481,0.03253
616.48502,0.03063
614.99523,0.03274
613.50544,0.03487
612.01565,0.07938
610.52587,0.02982
609.03608,0.05483
607.54629,0.05273
606.05650,0.05066
604.56671,0.08154
603.07692,0.05455
601.58714,0.06161
600.09735,0.06869
598.60756,0.09172
597.11777,0.02937
595.62798,0.06911
594.13819,0.07847
592.64840,0.08785
591.15862,0.12260
589.66883,0.14072
588.17904,0.16756
586.68925,0.15824
585.19946,0.14894
583.70967,0.15704
582.21989,0.18181
580.73010,0.17549
579.24031,0.16920
577.75052,0.19405
576.26073,0.25874
574.77094,0.28943
573.28115,0.30062
571.79137,0.31183
570.30158,0.39906
568.81179,0.44217
567.32200,0.47227
565.83221,0.50241
564.34242,0.49783
562.85264,0.56782
561.36285,0.66101
559.87306,0.66809
558.38327,0.67520
556.89348,0.68740
555.40369,0.69094
553.91391,0.71369
552.42412,0.73646
550.93433,0.78786
549.44454,0.87546
547.95475,0.88276
546.46496,0.89696
544.97517,0.91118
543.48539,0.93448
541.99560,0.92958
540.50581,0.93375
539.01602,0.93795
537.52623,0.99103
536.03644,0.96742
534.54666,0.99667
533.05687,1.02377
531.56708,1.05090
530.07729,0.98687
528.58750,0.98799
527.09771,0.94790
525.60792,0.90782
524.11814,0.86416
522.62835,0.90376
521.13856,0.78560
519.64877,0.77857
518.15898,0.77156
516.66919,0.73454
515.17941,0.69538
513.68962,0.66095
512.19983,0.62655
510.71004,0.57878
509.22025,0.57375
507.73046,0.52387
506.24068,0.51273
504.75089,0.50162
503.26110,0.42214
501.77131,0.37020
500.28152,0.33927
498.79173,0.30836
497.30194,0.26301
495.81216,0.22926
494.32237,0.21653
492.83258,0.20383
491.34279,0.18536
489.85300,0.18864
488.36321,0.17963
486.87343,0.16125
485.38364,0.14289
483.89385,0.10284
482.40406,0.07947
480.91427,0.08652
479.42448,0.09360
477.93469,0.07682
476.44491,0.06442
474.95512,0.08786
473.46533,0.11133
471.97554,0.07512
470.48575,0.11131
468.99596,0.11858
467.50618,0.10307
466.01639,0.08760
464.52660,0.10146
463.03681,0.10159
461.54702,0.10502
460.05723,0.10846
458.56745,0.14125
457.07766,0.15163
455.58787,0.18664
454.09808,0.22168
452.60829,0.19450
451.11850,0.23538
449.62871,0.22345
448.13893,0.21155
446.64914,0.25541
445.15935,0.34562
443.66956,0.43368
442.17977,0.45301
440.68998,0.47236
439.20020,0.46207
437.71041,0.51767
436.22062,0.54399
434.73083,0.57032
433.24104,0.67739
431.75125,0.69763
430.26146,0.73599
428.77168,0.77438
427.28189,0.81497
425.79210,0.86499
424.30231,0.88537
422.81252,0.90577
421.32273,1.06082
419.83295,1.03423
418.34316,1.02214
416.85337,1.01008
415.36358,0.90975
413.87379,0.79786
412.38400,0.80108
410.89422,0.80432
409.40443,0.87708
407.91464,0.90571
406.42485,0.93364
404.93506,0.91311
403.44527,0.89261
401.95548,0.83522
400.46570,0.86036
398.97591,0.86274
397.48612,0.86514
395.99633,0.86069
394.50654,0.80126
393.01675,0.77950
391.52697,0.75776
390.03718,0.85547
388.54739,0.83234
387.05760,0.83601
385.56781,0.83971
384.07802,0.85068
382.58824,0.79146
381.09845,0.76557
379.60866,0.73971
378.11887,0.77828
376.62908,0.64607
375.13929,0.64671
373.64950,0.64736
372.15972,0.51668
370.66993,0.43308
369.18014,0.43888
367.69035,0.44471
366.20056,0.40027
364.71077,0.40000
363.22099,0.35019
361.73120,0.30039
360.24141,0.18368
358.75162,0.20089
357.26183,0.18375
355.77204,0.16664
354.28225,0.21143
352.79247,0.14841
351.30268,0.12197
349.81289,0.09555
348.32310,0.05143
346.83331,0.08043
345.34352,0.04831
343.85374,0.01621
342.36395,0.05470
340.87416,0.04835
339.38437,0.03370
337.89458,0.01908
336.40479,0.09025
334.91501,0.10138
333.42522,0.06404
331.93543,0.02672
330.44564,0.00464
328.95585,0.00874
327.46606,0.03168
325.97627,0.05465
324.48649,0.08778
322.99670,0.03336
321.50691,0.04238
320.01712,0.05142
318.52733,0.05579
317.03754,0.01169
315.54776,0.00815
314.05797,0.00464
312.56818,0.08545
311.07839,0.04324
309.58860,0.04883
308.09881,0.05445
306.60902,0.06227
305.11924,0.08169
303.62945,0.05156
302.13966,0.02146
300.64987,0.00695
299.16008,0.00464
