1778.52000,0.06968
1777.03021,0.00200
1775.54042,0.04849
1774.05063,0.03033
1772.56085,0.05406
1771.07106,0.07211
1769.58127,0.11111
1768.09148,0.10449
1766.60169,0.10361
1765.11190,0.04379
1763.62212,0.03916
1762.13233,0.06691
1760.64254,0.03191
1759.15275,0.10537
1757.66296,0.08755
1756.17317,0.03742
1754.68339,0.02537
1753.19360,0.10086
1751.70381,0.05653
1750.21402,0.03126
1748.72423,0.05548
1747.23444,0.04929
1745.74465,0.01460
1744.25487,0.04652
1742.76508,0.08037
1741.27529,0.11425
1739.78550,0.06066
1738.29571,0.02231
1736.80592,0.10575
1735.31614,0.11312
1733.82635,0.06916
1732.33656,0.01002
1730.84677,0.03270
1729.35698,0.08395
1727.86719,0.04012
1726.37740,0.06480
1724.88762,0.00200
1723.39783,0.05788
1721.90804,0.00727
1720.41825,0.06892
1718.92846,0.00696
1717.43867,0.08950
1715.94889,0.13402
1714.45910,0.07395
1712.96931,0.12424
1711.47952,0.03760
1709.98973,0.02898
1708.49994,0.08888
1707.01016,0.11171
1705.52037,0.13458
1704.03058,0.13179
1702.54079,0.15947
1701.05100,0.11489
1699.56121,0.10459
1698.07142,0.09241
1696.58164,0.08598
1695.09185,0.09669
1693.60206,0.13217
1692.11227,0.12582
1690.62248,0.14233
1689.13269,0.16458
1687.64291,0.15833
1686.15312,0.19015
1684.66333,0.13070
1683.17354,0.06747
1681.68375,0.15455
1680.19396,0.12562
1678.70417,0.10814
1677.21439,0.12493
1675.72460,0.10751
1674.23481,0.09773
1672.74502,0.04993
1671.25523,0.12391
1669.76544,0.16369
1668.27566,0.12930
1666.78587,0.09494
1665.29608,0.11198
1663.80629,0.06246
1662.31650,0.13473
1660.82671,0.08718
1659.33693,0.11004
1657.84714,0.11202
1656.35735,0.02841
1654.86756,0.06088
1653.37777,0.07626
1651.88798,0.09167
1650.39819,0.14516
1648.90841,0.05410
1647.41862,0.09053
1645.92883,0.08704
1644.43904,0.08359
1642.94925,0.09918
1641.45946,0.09388
1639.96968,0.12286
1638.47989,0.08718
1636.99010,0.08197
1635.50031,0.06538
1634.01052,0.07355
1632.52073,0.14453
1631.03094,0.10140
1629.54116,0.18576
1628.05137,0.19596
1626.56158,0.18526
1625.07179,0.14986
1623.58200,0.08596
1622.09221,0.03350
1620.60243,0.00200
1619.11264,0.04353
1617.62285,0.07558
1616.13306,0.16092
1614.64327,0.13025
1613.15348,0.20044
1611.66370,0.11656
1610.17391,0.11072
1608.68412,0.10871
1607.19433,0.13907
1605.70454,0.17707
1604.21475,0.11903
1602.72496,0.06103
1601.23518,0.07058
1599.74539,0.09539
1598.25560,0.04604
1596.76581,0.09754
1595.27602,0.03684
1593.78623,0.10362
1592.29645,0.07912
1590.80666,0.03943
1589.31687,0.06065
1587.82708,0.00200
1586.33729,0.02241
1584.84750,0.02762
1583.35771,0.05190
1581.86793,0.09332
1580.37814,0.10814
1578.88835,0.05261
1577.39856,0.03896
1575.90877,0.04436
1574.41898,0.01556
1572.92920,0.00200
1571.43941,0.05059
1569.94962,0.06687
1568.45983,0.08318
1566.97004,0.02724
1565.48025,0.01888
1563.99047,0.03909
1562.50068,0.02509
1561.01089,0.03585
1559.52110,0.05425
1558.03131,0.04985
1556.54152,0.02076
1555.05173,0.05827
1553.56195,0.01402
1552.07216,0.03257
1550.58237,0.02833
1549.09258,0.07167
1547.60279,0.15880
1546.11300,0.25928
1544.62322,0.25326
1543.13343,0.25488
1541.64364,0.15189
1540.15385,0.10792
1538.66406,0.06397
1537.17427,0.05620
1535.68448,0.01232
1534.19470,0.03314
1532.70491,0.03307
1531.21512,0.03303
1529.72533,0.04063
1528.23554,0.06539
1526.74575,0.08066
1525.25597,0.03128
1523.76618,0.04281
1522.27639,0.03345
1520.78660,0.13254
1519.29681,0.07188
1517.80702,0.00744
1516.31724,0.01912
1514.82745,0.06507
1513.33766,0.05589
1511.84787,0.04674
1510.35808,0.03192
1508.86829,0.00000
1507.37850,0.03279
1505.88872,0.05991
1504.39893,0.06613
1502.90914,0.00200
1501.41935,0.04435
1499.92956,0.05439
1498.43977,0.06255
1496.94999,0.12592
1495.46020,0.08088
1493.97041,0.09295
1492.48062,0.04607
1490.99083,0.08102
1489.50104,0.11030
1488.01125,0.13200
1486.52147,0.15373
1485.03168,0.17739
1483.54189,0.14402
1482.05210,0.15062
1480.56231,0.22383
1479.07252,0.20957
1477.58274,0.25241
1476.09295,0.24963
1474.60316,0.27921
1473.11337,0.27078
1471.62358,0.25477
1470.13379,0.25782
1468.64401,0.25519
1467.15422,0.31346
1465.66443,0.24907
1464.17464,0.18470
1462.68485,0.12703
1461.19506,0.22157
1459.70527,0.14493
1458.21549,0.11208
1456.72570,0.07355
1455.23591,0.04837
1453.74612,0.10121
1452.25633,0.11414
1450.76654,0.09856
1449.27676,0.08681
1447.78697,0.05418
1446.29718,0.02537
1444.80739,0.04702
1443.31760,0.06869
1441.82781,0.07802
1440.33802,0.10451
1438.84824,0.06064
1437.35845,0.08149
1435.86866,0.03578
1434.37887,0.00342
1432.88908,0.10806
1431.39929,0.02249
1429.90951,0.06251
1428.41972,0.15012
1426.92993,0.09128
1425.44014,0.10096
1423.95035,0.11352
1422.46056,0.12611
1420.97078,0.17012
1419.48099,0.16470
1417.99120,0.16121
1416.50141,0.16156
1415.01162,0.09916
1413.52183,0.05391
1412.03204,0.13806
1410.54226,0.24125
1409.05247,0.26649
1407.56268,0.18902
1406.07289,0.21622
1404.58310,0.20540
1403.09331,0.19461
1401.60353,0.24473
1400.11374,0.22639
1398.62395,0.28989
1397.13416,0.30776
1395.64437,0.34468
1394.15458,0.33407
1392.66479,0.27975
1391.17501,0.26921
1389.68522,0.22826
1388.19543,0.26914
1386.70564,0.25013
1385.21585,0.23115
1383.72606,0.25500
1382.23628,0.28840
1380.74649,0.31421
1379.25670,0.29250
1377.76691,0.29746
1376.27712,0.33858
1374.78733,0.36452
1373.29755,0.50844
1371.80776,0.56868
1370.31797,0.70505
1368.82818,0.82338
1367.33839,0.94173
1365.84860,0.99259
1364.35881,1.13288
1362.86903,1.31696
1361.37924,1.40025
1359.88945,1.38465
1358.39966,1.22260
1356.90987,1.11765
1355.42008,1.13257
1353.93030,1.20650
1352.44051,1.19390
1350.95072,1.18134
1349.46093,0.98143
1347.97114,0.83671
1346.48135,0.56838
1344.99156,0.46557
1343.50178,0.41417
1342.01199,0.36088
1340.52220,0.31905
1339.03241,0.32671
1337.54262,0.25640
1336.05283,0.21560
1334.56305,0.17484
1333.07326,0.20355
1331.58347,0.10292
1330.09368,0.14310
1328.60389,0.10342
1327.11410,0.16839
1325.62432,0.14969
1324.13453,0.13102
1322.64474,0.06102
1321.15495,0.04812
1319.66516,0.06473
1318.17537,0.08138
1316.68558,0.04194
1315.19580,0.04248
1313.70601,0.04685
1312.21622,0.04175
1310.72643,0.03286
1309.23664,0.07538
1307.74685,0.07797
1306.25707,0.07299
1304.76728,0.06708
1303.27749,0.06121
1301.78770,0.07154
1300.29791,0.00200
1298.80812,0.07829
1297.31834,0.04618
1295.82855,0.04264
1294.33876,0.07717
1292.84897,0.10033
1291.35918,0.01888
1289.86939,0.02497
1288.37960,0.03109
1286.88982,0.04486
1285.40003,0.09860
1283.91024,0.04394
1282.42045,0.06350
1280.93066,0.05646
1279.44087,0.10081
1277.95109,0.06910
1276.46130,0.01270
1274.97151,0.04097
1273.48172,0.06928
1271.99193,0.15183
1270.50214,0.07652
1269.01235,0.09446
1267.52257,0.08389
1266.03278,0.13423
1264.54299,0.05524
1263.05320,0.11135
1261.56341,0.09424
1260.07362,0.07717
1258.58384,0.12766
1257.09405,0.13633
1255.60426,0.12601
1254.11447,0.10241
1252.62468,0.04839
1251.13489,0.08762
1249.64511,0.10976
1248.15532,0.11101
1246.66553,0.11990
1245.17574,0.12881
1243.68595,0.09972
1242.19616,0.04972
1240.70637,0.07585
1239.21659,0.07728
1237.72680,0.06923
1236.23701,0.05741
1234.74722,0.05513
1233.25743,0.06524
1231.76764,0.07539
1230.27786,0.09412
1228.78807,0.12811
1227.29828,0.05750
1225.80849,0.15432
1224.31870,0.12563
1222.82891,0.08554
1221.33912,0.09495
1219.84934,0.08537
1218.35955,0.07582
1216.86976,0.14049
1215.37997,0.11768
1213.89018,0.12724
1212.40039,0.09309
1210.91061,0.13505
1209.42082,0.10285
1207.93103,0.10874
1206.44124,0.11465
1204.95145,0.02738
1203.46166,0.09042
1201.97188,0.04316
1200.48209,0.01115
1198.99230,0.00200
1197.50251,0.06169
1196.01272,0.10048
1194.52293,0.10792
1193.03314,0.11538
1191.54336,0.08578
1190.05357,0.06953
1188.56378,0.05141
1187.07399,0.07517
1185.58420,0.05520
1184.09441,0.09424
1182.60463,0.08195
1181.11484,0.06969
1179.62505,0.04604
1178.13526,0.12135
1176.64547,0.08635
1175.15568,0.05899
1173.66589,0.07162
1172.17611,0.12422
1170.68632,0.09981
1169.19653,0.07542
1167.70674,0.13192
1166.21695,0.09334
1164.72716,0.11185
1163.23738,0.09045
1161.74759,0.04815
1160.25780,0.01159
1158.76801,0.05020
1157.27822,0.08884
1155.78843,0.05808
1154.29865,0.14909
1152.80886,0.08035
1151.31907,0.10675
1149.82928,0.09703
1148.33949,0.11398
1146.84970,0.10433
1145.35991,0.09471
1143.87013,0.17263
1142.38034,0.13453
1140.89055,0.13261
1139.40076,0.17828
1137.91097,0.13267
1136.42118,0.11753
1134.93140,0.12619
1133.44161,0.13489
1131.95182,0.17501
1130.46203,0.14287
1128.97224,0.15831
1127.48245,0.16047
1125.99266,0.18930
1124.50288,0.14777
1123.01309,0.14242
1121.52330,0.13709
1120.03351,0.21550
1118.54372,0.27492
1117.05393,0.33056
1115.56415,0.27970
1114.07436,0.23839
1112.58457,0.24181
1111.09478,0.24526
1109.60499,0.27252
1108.11520,0.34737
1106.62542,0.37280
1105.13563,0.40395
1103.64584,0.41802
1102.15605,0.38647
1100.66626,0.42913
1099.17647,0.47183
1097.68668,0.48221
1096.19690,0.51926
1094.70711,0.58108
1093.21732,0.62960
1091.72753,0.57353
1090.23774,0.56695
1088.74795,0.56040
1087.25817,0.60525
1085.76838,0.63680
1084.27859,0.66459
1082.78880,0.68289
1081.29901,0.70313
1079.80922,0.67394
1078.31943,0.66760
1076.82965,0.66130
1075.33986,0.68356
1073.85007,0.70395
1072.36028,0.71677
1070.87049,0.56982
1069.38070,0.62644
1067.89092,0.57372
1066.40113,0.52102
1064.91134,0.53589
1063.42155,0.42714
1061.93176,0.45919
1060.44197,0.49888
1058.95219,0.38261
1057.46240,0.36530
1055.97261,0.34801
1054.48282,0.31173
1052.99303,0.25646
1051.50324,0.24878
1050.01345,0.28298
1048.52367,0.26775
1047.03388,0.29630
1045.54409,0.32489
1044.05430,0.26219
1042.56451,0.16719
1041.07472,0.07982
1039.58494,0.00200
1038.09515,0.03632
1036.60536,0.03548
1035.11557,0.03467
1033.62578,0.09191
1032.13599,0.17581
1030.64620,0.18365
1029.15642,0.12304
1027.66663,0.14236
1026.17684,0.16170
1024.68705,0.10499
1023.19726,0.20049
1021.70747,0.22944
1020.21769,0.17282
1018.72790,0.27222
1017.23811,0.29936
1015.74832,0.32653
1014.25853,0.36325
1012.76874,0.36765
1011.27896,0.53950
1009.78917,0.58201
1008.29938,0.63406
1006.80959,0.64715
1005.31980,0.66028
1003.83001,0.72194
1002.34022,1.00430
1000.85044,1.11928
999.36065,1.13728
997.87086,1.26375
996.38107,1.39024
994.89128,1.51676
993.40149,1.66615
991.91171,1.76229
990.42192,1.82613
988.93213,1.90142
987.44234,1.88732
985.95255,1.87326
984.46276,2.00000
982.97297,1.86425
981.48319,1.79321
979.99340,1.64230
978.50361,1.67405
977.01382,1.70582
975.52403,1.60067
974.03424,1.72191
972.54446,1.71574
971.05467,1.66013
969.56488,1.63689
968.07509,1.55472
966.58530,1.47257
965.09551,1.45703
963.60573,1.39397
962.11594,1.31572
960.62615,1.29457
959.13636,1.26204
957.64657,1.22954
956.15678,1.22941
954.66699,1.09424
953.17721,1.05042
951.68742,0.97048
950.19763,0.96001
948.70784,0.94957
947.21805,0.90967
945.72826,0.89834
944.23848,0.86041
942.74869,0.87577
941.25890,0.75801
939.76911,0.74870
938.27932,0.73943
936.78953,0.81199
935.29974,0.74570
933.80996,0.78598
932.32017,0.87765
930.83038,0.82003
929.34059,0.76243
927.85080,0.82185
926.36101,0.86038
924.87123,0.99216
923.38144,0.92041
921.89165,0.94857
920.40186,0.97677
918.91207,0.96219
917.42228,0.96666
915.93250,1.01111
914.44271,1.05750
912.95292,1.07538
911.46313,1.09329
909.97334,1.05797
908.48355,1.09497
906.99376,1.13200
905.50398,1.19569
904.01419,1.17285
902.52440,1.15005
901.03461,1.34700
899.54482,1.44696
898.05503,1.44422
896.56525,1.41679
895.07546,1.39984
893.58567,1.38293
892.09588,1.34798
890.60609,1.27882
889.11630,1.16783
887.62651,1.19955
886.13673,1.21133
884.64694,1.22314
883.15715,1.15984
881.66736,1.08706
880.17757,1.05806
878.68778,1.03575
877.19800,1.01347
875.70821,1.03782
874.21842,0.91003
872.72863,0.82411
871.23884,0.79149
869.74905,0.74559
868.25927,0.69971
866.76948,0.64436
865.27969,0.63850
863.78990,0.63076
862.30011,0.50511
860.81032,0.49554
859.32053,0.48599
857.83075,0.44414
856.34096,0.44227
854.85117,0.45564
853.36138,0.35110
851.87159,0.35027
850.38180,0.34947
848.89202,0.33443
847.40223,0.34796
845.91244,0.27021
844.42265,0.22768
842.93286,0.18519
841.44307,0.14557
839.95329,0.08887
838.46350,0.16156
836.97371,0.15438
835.48392,0.15008
833.99413,0.14581
832.50434,0.13682
831.01455,0.09742
829.52477,0.14366
828.03498,0.18232
826.54519,0.16299
825.05540,0.14369
823.56561,0.11586
822.07582,0.07094
820.58604,0.02795
819.09625,0.06965
817.60646,0.11138
816.11667,0.06849
814.62688,0.12835
813.13709,0.06459
811.64730,0.07125
810.15752,0.05321
808.66773,0.03520
807.17794,0.00200
805.68815,0.03783
804.19836,0.08320
802.70857,0.12004
801.21879,0.15691
799.72900,0.22140
798.23921,0.17748
796.74942,0.23823
795.25963,0.22481
793.76984,0.21142
792.28006,0.25704
790.79027,0.27606
789.30048,0.27798
787.81069,0.35793
786.32090,0.36087
784.83111,0.36384
783.34132,0.27077
781.85154,0.31280
780.36175,0.36056
778.87196,0.38458
777.38217,0.40863
775.89238,0.39751
774.40259,0.39975
772.91281,0.44196
771.42302,0.41096
769.93323,0.38000
768.44344,0.46225
766.95365,0.32767
765.46386,0.41759
763.97407,0.40292
762.48429,0.37687
760.99450,0.35084
759.50471,0.34387
758.01492,0.27606
756.52513,0.26154
755.03534,0.22898
753.54556,0.19645
752.05577,0.12115
750.56598,0.11055
749.07619,0.15706
747.58640,0.11039
746.09661,0.06375
744.60683,0.12747
743.11704,0.05996
741.62725,0.00200
740.13746,0.04837
738.64767,0.09476
737.15788,0.06320
735.66809,0.08112
734.17831,0.05152
732.68852,0.10184
731.19873,0.15220
729.70894,0.07133
728.21915,0.08179
726.72936,0.02000
725.23958,0.00200
723.74979,0.01303
722.26000,0.02409
720.77021,0.05136
719.28042,0.06914
717.79063,0.06412
716.30084,0.04677
714.81106,0.02945
713.32127,0.04926
711.83148,0.05768
710.34169,0.06424
708.85190,0.05084
707.36211,0.03748
705.87233,0.04793
704.38254,0.05080
702.89275,0.05941
701.40296,0.05949
699.91317,0.05960
698.42338,0.22239
696.93360,0.41374
695.44381,0.35402
693.95402,0.34474
692.46423,0.33550
690.97444,0.12939
689.48465,0.06789
687.99486,0.07110
686.50508,0.08575
685.01529,0.10044
683.52550,0.10944
682.03571,0.04429
680.54592,0.00200
679.05613,0.02428
677.56635,0.04660
676.07656,0.15169
674.58677,0.07039
673.09698,0.08994
671.60719,0.08004
670.11740,0.07017
668.62761,0.11645
667.13783,0.15705
665.64804,0.11208
664.15825,0.06714
662.66846,0.06788
661.17867,0.03632
659.68888,0.09039
658.19910,0.10644
656.70931,0.12253
655.21952,0.07968
653.72973,0.13958
652.23994,0.19380
650.75015,0.20621
649.26037,0.21865
647.77058,0.18926
646.28079,0.28927
644.79100,0.37408
643.30121,0.28106
641.81142,0.18807
640.32163,0.21591
638.83185,0.14676
637.34206,0.07004
635.85227,0.11604
634.36248,0.16207
632.87269,0.11017
631.38290,0.10966
629.89312,0.19098
628.40333,0.19243
626.91354,0.19392
625.42375,0.20875
623.93396,0.17795
622.44417,0.17002
620.95438,0.16211
619.46460,0.14282
617.97481,0.20156
616.48502,0.13478
614.99523,0.13651
613.50544,0.13827
612.01565,0.24278
610.52587,0.12476
609.03608,0.20271
607.54629,0.26071
606.05650,0.31874
604.56671,0.26932
603.07692,0.19711
601.58714,0.16297
600.09735,0.12887
598.60756,0.13093
597.11777,0.09879
595.62798,0.00200
594.13819,0.02361
592.64840,0.04525
591.15862,0.03173
589.66883,0.16663
588.17904,0.23307
586.68925,0.22344
585.19946,0.21385
583.70967,0.24994
582.21989,0.32982
580.73010,0.34696
579.24031,0.36412
577.75052,0.34327
576.26073,0.39664
574.77094,0.41960
573.28115,0.43879
571.79137,0.45801
570.30158,0.52291
568.81179,0.51937
567.32200,0.57482
565.83221,0.63031
564.34242,0.64208
562.85264,0.62534
561.36285,0.84261
559.87306,0.87730
558.38327,0.91201
556.89348,0.97149
555.40369,0.91115
553.91391,0.93169
552.42412,0.95226
550.93433,0.92435
549.44454,0.82990
547.95475,0.95994
546.46496,0.93118
544.97517,0.90244
543.48539,0.99453
541.99560,1.06383
540.50581,1.05706
539.01602,1.05033
537.52623,1.12352
536.03644,1.13777
534.54666,1.07596
533.05687,1.03986
531.56708,1.00379
530.07729,0.95920
528.58750,1.03257
527.09771,0.97662
525.60792,0.92070
524.11814,0.82867
522.62835,0.63585
521.13856,0.60665
519.64877,0.61648
518.15898,0.62635
516.66919,0.60676
515.17941,0.51681
513.68962,0.57338
512.19983,0.62997
510.71004,0.59909
509.22025,0.52639
507.73046,0.45372
506.24068,0.39344
504.75089,0.33320
503.26110,0.33291
501.77131,0.28890
500.28152,0.26299
498.79173,0.23711
497.30194,0.16655
495.81216,0.16071
494.32237,0.17392
492.83258,0.18716
491.34279,0.20044
489.85300,0.24418
488.36321,0.21376
486.87343,0.19003
485.38364,0.16633
483.89385,0.15502
482.40406,0.12282
480.91427,0.10397
479.42448,0.08515
477.93469,0.10441
476.44491,0.11418
474.95512,0.09926
473.46533,0.08437
471.97554,0.10945
470.48575,0.09082
468.99596,0.11596
467.50618,0.12973
466.01639,0.14352
464.52660,0.06794
463.03681,0.07229
461.54702,0.13088
460.05723,0.18950
458.56745,0.20155
457.07766,0.19841
455.58787,0.17342
454.09808,0.14847
452.60829,0.07503
451.11850,0.18615
449.62871,0.17746
448.13893,0.16880
446.64914,0.38274
445.15935,0.37033
443.66956,0.43975
442.17977,0.43597
440.68998,0.43222
439.20020,0.50364
437.71041,0.55796
436.22062,0.54099
434.73083,0.52404
433.24104,0.72304
431.75125,0.77749
430.26146,0.79773
428.77168,0.81800
427.28189,0.87065
425.79210,1.02795
424.30231,1.14914
422.81252,1.27035
421.32273,1.73783
419.83295,1.73355
418.34316,1.61897
416.85337,1.50443
415.36358,1.04940
413.87379,0.86833
412.38400,0.86611
410.89422,0.86393
409.40443,1.00064
407.91464,1.12216
406.42485,1.06300
404.93506,1.09803
403.44527,1.13309
401.95548,0.96939
400.46570,0.89704
398.97591,0.91317
397.48612,0.92933
395.99633,0.96930
394.50654,0.94082
393.01675,0.92759
391.52697,0.91439
390.03718,0.90883
388.54739,0.92042
387.05760,0.86071
385.56781,0.80102
384.07802,0.74613
382.58824,0.79589
381.09845,0.72203
379.60866,0.64820
378.11887,0.61435
376.62908,0.57482
375.13929,0.59145
373.64950,0.60810
372.15972,0.40887
370.66993,0.37137
369.18014,0.35293
367.69035,0.33451
366.20056,0.41505
364.71077,0.41382
363.22099,0.37172
361.73120,0.32964
360.24141,0.22197
358.75162,0.22086
357.26183,0.20362
355.77204,0.18640
354.28225,0.11309
352.79247,0.20152
351.30268,0.19295
349.81289,0.18442
348.32310,0.18162
346.83331,0.12559
345.34352,0.12571
343.85374,0.12586
342.36395,0.10987
340.87416,0.09581
339.38437,0.11032
337.89458,0.12486
336.40479,0.20601
334.91501,0.14452
333.42522,0.13823
331.93543,0.13197
330.44564,0.09720
328.95585,0.12714
327.46606,0.07817
325.97627,0.02923
324.48649,0.18409
322.99670,0.20963
321.50691,0.18003
320.01712,0.15046
318.52733,0.04292
317.03754,0.00200
315.54776,0.02892
314.05797,0.05587
312.56818,0.01817
311.07839,0.05088
309.58860,0.02846
308.09881,0.00607
306.60902,0.03698
305.11924,0.00324
303.62945,0.01233
302.13966,0.01647
300.64987,0.03300
299.16008,0.00200
