1778.52000,0.01282
1777.03021,0.00505
1775.54042,0.01866
1774.05063,0.01336
1772.56085,0.01403
1771.07106,0.01582
1769.58127,0.01917
1768.09148,0.01089
1766.60169,0.01275
1765.11190,0.00914
1763.62212,0.00489
1762.13233,0.00770
1760.64254,0.00702
1759.15275,0.01055
1757.66296,0.00617
1756.17317,0.00754
1754.68339,0.00696
1753.19360,0.00089
1751.70381,0.00762
1750.21402,0.01085
1748.72423,0.00618
1747.23444,0.00593
1745.74465,0.00527
1744.25487,0.00574
1742.76508,0.01679
1741.27529,0.01840
1739.78550,0.00617
1738.29571,0.01136
1736.80592,0.01635
1735.31614,0.01631
1733.82635,0.01078
1732.33656,0.00000
1730.84677,0.00443
1729.35698,0.00690
1727.86719,0.00830
1726.37740,0.00509
1724.88762,0.01820
1723.39783,0.00999
1721.90804,0.00972
1720.41825,0.00661
1718.92846,0.00617
1717.43867,0.00819
1715.94889,0.01309
1714.45910,0.01758
1712.96931,0.01395
1711.47952,0.00770
1709.98973,0.00697
1708.49994,0.01244
1707.01016,0.00736
1705.52037,0.00231
1704.03058,0.00917
1702.54079,0.01650
1701.05100,0.02077
1699.56121,0.00635
1698.07142,0.02211
1696.58164,0.02051
1695.09185,0.00617
1693.60206,0.02198
1692.11227,0.02418
1690.62248,0.02265
1689.13269,0.02819
1687.64291,0.03310
1686.15312,0.03230
1684.66333,0.03704
1683.17354,0.03629
1681.68375,0.04768
1680.19396,0.04742
1678.70417,0.03860
1677.21439,0.04148
1675.72460,0.04327
1674.23481,0.04399
1672.74502,0.04606
1671.25523,0.05695
1669.76544,0.06743
1668.27566,0.06890
1666.78587,0.06908
1665.29608,0.06775
1663.80629,0.07722
1662.31650,0.07175
1660.82671,0.07092
1659.33693,0.08399
1657.84714,0.07925
1656.35735,0.08048
1654.86756,0.08790
1653.37777,0.07685
1651.88798,0.08233
1650.39819,0.09488
1648.90841,0.09029
1647.41862,0.08660
1645.92883,0.08722
1644.43904,0.08787
1642.94925,0.09416
1641.45946,0.09167
1639.96968,0.08612
1638.47989,0.08918
1636.99010,0.08434
1635.50031,0.08436
1634.01052,0.09057
1632.52073,0.07898
1631.03094,0.07753
1629.54116,0.08558
1628.05137,0.08859
1626.56158,0.09008
1625.07179,0.10458
1623.58200,0.09907
1622.09221,0.10459
1620.60243,0.09540
1619.11264,0.09018
1617.62285,0.08961
1616.13306,0.08577
1614.64327,0.09582
1613.15348,0.10281
1611.66370,0.10300
1610.17391,0.10277
1608.68412,0.09772
1607.19433,0.09446
1605.70454,0.09541
1604.21475,0.09583
1602.72496,0.09627
1601.23518,0.09597
1599.74539,0.08249
1598.25560,0.07783
1596.76581,0.08442
1595.27602,0.09280
1593.78623,0.09636
1592.29645,0.09026
1590.80666,0.08308
1589.31687,0.09068
1587.82708,0.07804
1586.33729,0.07842
1584.84750,0.07949
1583.35771,0.08784
1581.86793,0.08278
1580.37814,0.08810
1578.88835,0.06791
1577.39856,0.06887
1575.90877,0.06150
1574.41898,0.06581
1572.92920,0.06420
1571.43941,0.05602
1569.94962,0.04940
1568.45983,0.04280
1566.97004,0.03953
1565.48025,0.03694
1563.99047,0.03944
1562.50068,0.03845
1561.01089,0.04166
1559.52110,0.04071
1558.03131,0.02833
1556.54152,0.02985
1555.05173,0.03118
1553.56195,0.02108
1552.07216,0.02003
1550.58237,0.02077
1549.09258,0.01713
1547.60279,0.01791
1546.11300,0.02620
1544.62322,0.02989
1543.13343,0.01424
1541.64364,0.01380
1540.15385,0.00997
1538.66406,0.00617
1537.17427,0.01996
1535.68448,0.01287
1534.19470,0.02429
1532.70491,0.02209
1531.21512,0.03444
1529.72533,0.03515
1528.23554,0.03368
1526.74575,0.02145
1525.25597,0.02861
1523.76618,0.03140
1522.27639,0.03223
1520.78660,0.03110
1519.29681,0.04144
1517.80702,0.05004
1516.31724,0.06065
1514.82745,0.05412
1513.33766,0.05762
1511.84787,0.06115
1510.35808,0.04412
1508.86829,0.06366
1507.37850,0.05636
1505.88872,0.06031
1504.39893,0.05703
1502.90914,0.06213
1501.41935,0.07496
1499.92956,0.08848
1498.43977,0.07737
1496.94999,0.07310
1495.46020,0.08295
1493.97041,0.09216
1492.48062,0.11129
1490.99083,0.12826
1489.50104,0.12367
1488.01125,0.13198
1486.52147,0.14032
1485.03168,0.16399
1483.54189,0.18129
1482.05210,0.20280
1480.56231,0.22125
1479.07252,0.24764
1477.58274,0.26262
1476.09295,0.26486
1474.60316,0.26799
1473.11337,0.29471
1471.62358,0.29504
1470.13379,0.29142
1468.64401,0.28497
1467.15422,0.31509
1465.66443,0.31342
1464.17464,0.31177
1462.68485,0.35913
1461.19506,0.39726
1459.70527,0.43365
1458.21549,0.51564
1456.72570,0.57189
1455.23591,0.64138
1453.74612,0.70252
1452.25633,0.73442
1450.76654,0.74939
1449.27676,0.76526
1447.78697,0.74638
1446.29718,0.72048
1444.80739,0.70473
1443.31760,0.68901
1441.82781,0.65174
1440.33802,0.61075
1438.84824,0.58893
1437.35845,0.54182
1435.86866,0.50091
1434.37887,0.53463
1432.88908,0.56442
1431.39929,0.62394
1429.90951,0.70990
1428.41972,0.77696
1426.92993,0.84932
1425.44014,0.90014
1423.95035,0.90960
1422.46056,0.91908
1420.97078,0.98582
1419.48099,0.98060
1417.99120,0.97783
1416.50141,0.97861
1415.01162,0.95894
1413.52183,0.89351
1412.03204,0.84307
1410.54226,0.77439
1409.05247,0.72598
1407.56268,0.66417
1406.07289,0.56100
1404.58310,0.54623
1403.09331,0.53148
1401.60353,0.46162
1400.11374,0.40786
1398.62395,0.35896
1397.13416,0.30238
1395.64437,0.25991
1394.15458,0.24806
1392.66479,0.19243
1391.17501,0.12296
1389.68522,0.12108
1388.19543,0.10229
1386.70564,0.09485
1385.21585,0.08744
1383.72606,0.07179
1382.23628,0.03988
1380.74649,0.04036
1379.25670,0.04173
1377.76691,0.03587
1376.27712,0.02717
1374.78733,0.00617
1373.29755,0.01446
1371.80776,0.00693
1370.31797,0.02674
1368.82818,0.02534
1367.33839,0.02397
1365.84860,0.03307
1364.35881,0.04132
1362.86903,0.06125
1361.37924,0.05238
1359.88945,0.06774
1358.39966,0.10030
1356.90987,0.12980
1355.42008,0.19167
1353.93030,0.27603
1352.44051,0.28942
1350.95072,0.30284
1349.46093,0.37207
1347.97114,0.43825
1346.48135,0.51370
1344.99156,0.55682
1343.50178,0.66049
1342.01199,0.72875
1340.52220,0.80077
1339.03241,0.85323
1337.54262,0.89449
1336.05283,0.89164
1334.56305,0.88881
1333.07326,0.88083
1331.58347,0.89753
1330.09368,0.87860
1328.60389,0.89711
1327.11410,0.89473
1325.62432,0.85276
1324.13453,0.79738
1322.64474,0.73741
1321.15495,0.71268
1319.66516,0.69666
1318.17537,0.68067
1316.68558,0.60627
1315.19580,0.57305
1313.70601,0.53611
1312.21622,0.55246
1310.72643,0.51359
1309.23664,0.45625
1307.74685,0.41281
1306.25707,0.38743
1304.76728,0.36858
1303.27749,0.34975
1301.78770,0.30552
1300.29791,0.28575
1298.80812,0.22506
1297.31834,0.18706
1295.82855,0.15702
1294.33876,0.13602
1292.84897,0.12781
1291.35918,0.09652
1289.86939,0.09188
1288.37960,0.08727
1286.88982,0.07299
1285.40003,0.08119
1283.91024,0.07313
1282.42045,0.07984
1280.93066,0.04497
1279.44087,0.04138
1277.95109,0.05257
1276.46130,0.03010
1274.97151,0.02504
1273.48172,0.02001
1271.99193,0.03569
1270.50214,0.02652
1269.01235,0.04819
1267.52257,0.05492
1266.03278,0.02404
1264.54299,0.02751
1263.05320,0.04268
1261.56341,0.03277
1260.07362,0.02290
1258.58384,0.01766
1257.09405,0.01223
1255.60426,0.00617
1254.11447,0.01751
1252.62468,0.01237
1251.13489,0.01386
1249.64511,0.01009
1248.15532,0.01294
1246.66553,0.01384
1245.17574,0.01477
1243.68595,0.01065
1242.19616,0.01690
1240.70637,0.02076
1239.21659,0.01760
1237.72680,0.03515
1236.23701,0.02653
1234.74722,0.03313
1233.25743,0.02720
1231.76764,0.02129
1230.27786,0.00617
1228.78807,0.01984
1227.29828,0.01350
1225.80849,0.00740
1224.31870,0.01189
1222.82891,0.03226
1221.33912,0.04605
1219.84934,0.03894
1218.35955,0.03187
1216.86976,0.03978
1215.37997,0.06731
1213.89018,0.06933
1212.40039,0.06367
1210.91061,0.06552
1209.42082,0.05133
1207.93103,0.05774
1206.44124,0.06417
1204.95145,0.07272
1203.46166,0.06192
1201.97188,0.05533
1200.48209,0.05294
1198.99230,0.04882
1197.50251,0.03460
1196.01272,0.05672
1194.52293,0.05630
1193.03314,0.05591
1191.54336,0.03870
1190.05357,0.03626
1188.56378,0.03187
1187.07399,0.02001
1185.58420,0.01325
1184.09441,0.02015
1182.60463,0.02245
1181.11484,0.02478
1179.62505,0.01503
1178.13526,0.02489
1176.64547,0.02003
1175.15568,0.00617
1173.66589,0.02422
1172.17611,0.02095
1170.68632,0.02595
1169.19653,0.03098
1167.70674,0.02954
1166.21695,0.02328
1164.72716,0.03553
1163.23738,0.03614
1161.74759,0.05241
1160.25780,0.06143
1158.76801,0.06376
1157.27822,0.06612
1155.78843,0.08336
1154.29865,0.08060
1152.80886,0.08490
1151.31907,0.09429
1149.82928,0.11118
1148.33949,0.10587
1146.84970,0.12007
1145.35991,0.13428
1143.87013,0.17042
1142.38034,0.16675
1140.89055,0.14769
1139.40076,0.16322
1137.91097,0.18317
1136.42118,0.19676
1134.93140,0.21389
1133.44161,0.23106
1131.95182,0.24648
1130.46203,0.23794
1128.97224,0.24658
1127.48245,0.26472
1125.99266,0.27100
1124.50288,0.26893
1123.01309,0.26524
1121.52330,0.26157
1120.03351,0.24704
1118.54372,0.25519
1117.05393,0.25193
1115.56415,0.24605
1114.07436,0.24569
1112.58457,0.24360
1111.09478,0.24153
1109.60499,0.23398
1108.11520,0.25177
1106.62542,0.23943
1105.13563,0.23482
1103.64584,0.24366
1102.15605,0.23711
1100.66626,0.22850
1099.17647,0.21991
1097.68668,0.21960
1096.19690,0.20941
1094.70711,0.23864
1093.21732,0.22982
1091.72753,0.21111
1090.23774,0.20399
1088.74795,0.19689
1087.25817,0.19234
1085.76838,0.17990
1084.27859,0.19169
1082.78880,0.19998
1081.29901,0.18189
1079.80922,0.19617
1078.31943,0.21467
1076.82965,0.23318
1075.33986,0.23301
1073.85007,0.22098
1072.36028,0.25167
1070.87049,0.25400
1069.38070,0.28848
1067.89092,0.30648
1066.40113,0.32450
1064.91134,0.38283
1063.42155,0.45571
1061.93176,0.59817
1060.44197,0.66581
1058.95219,0.72446
1057.46240,0.79116
1055.97261,0.85789
1054.48282,0.97317
1052.99303,0.97997
1051.50324,0.99053
1050.01345,0.97932
1048.52367,0.96352
1047.03388,0.95984
1045.54409,0.95619
1044.05430,0.89423
1042.56451,0.80765
1041.07472,0.73099
1039.58494,0.67219
1038.09515,0.61605
1036.60536,0.57799
1035.11557,0.53995
1033.62578,0.47112
1032.13599,0.39813
1030.64620,0.33661
1029.15642,0.30637
1027.66663,0.29178
1026.17684,0.27722
1024.68705,0.23451
1023.19726,0.20590
1021.70747,0.17909
1020.21769,0.14481
1018.72790,0.14247
1017.23811,0.13212
1015.74832,0.12180
1014.25853,0.09466
1012.76874,0.08626
1011.27896,0.11266
1009.78917,0.09219
1008.29938,0.08210
1006.80959,0.07258
1005.31980,0.06309
1003.83001,0.03392
1002.34022,0.01578
1000.85044,0.04564
999.36065,0.06101
997.87086,0.07156
996.38107,0.08213
994.89128,0.10681
993.40149,0.11500
991.91171,0.14039
990.42192,0.16647
988.93213,0.15713
987.44234,0.14231
985.95255,0.12751
984.46276,0.13387
982.97297,0.13542
981.48319,0.13258
979.99340,0.10490
978.50361,0.09418
977.01382,0.08350
975.52403,0.05632
974.03424,0.04458
972.54446,0.02450
971.05467,0.03042
969.56488,0.01435
968.07509,0.01382
966.58530,0.01331
965.09551,0.01162
963.60573,0.01480
962.11594,0.01294
960.62615,0.01748
959.13636,0.01181
957.64657,0.00617
956.15678,0.02986
954.66699,0.03971
953.17721,0.04650
951.68742,0.04627
950.19763,0.05454
948.70784,0.06284
947.21805,0.07016
945.72826,0.08324
944.23848,0.09260
942.74869,0.11012
941.25890,0.12657
939.76911,0.13226
938.27932,0.13797
936.78953,0.17936
935.29974,0.19150
933.80996,0.19729
932.32017,0.20860
930.83038,0.21817
929.34059,0.22777
927.85080,0.22968
926.36101,0.26464
924.87123,0.29808
923.38144,0.37249
921.89165,0.39982
920.40186,0.42717
918.91207,0.51485
917.42228,0.62655
915.93250,0.77108
914.44271,0.97307
912.95292,1.06129
911.46313,1.14954
909.97334,1.38660
908.48355,1.62369
906.99376,1.80798
905.50398,1.96456
904.01419,1.98227
902.52440,2.00000
901.03461,1.93940
899.54482,1.90259
898.05503,1.78657
896.56525,1.57153
895.07546,1.45841
893.58567,1.34533
892.09588,1.05177
890.60609,0.82824
889.11630,0.62916
887.62651,0.49459
886.13673,0.43049
884.64694,0.36641
883.15715,0.26164
881.66736,0.20245
880.17757,0.15781
878.68778,0.13642
877.19800,0.11506
875.70821,0.08700
874.21842,0.06425
872.72863,0.06156
871.23884,0.05448
869.74905,0.04853
868.25927,0.04261
866.76948,0.04595
865.27969,0.04888
863.78990,0.08133
862.30011,0.07044
860.81032,0.08004
859.32053,0.08967
857.83075,0.11165
856.34096,0.10614
854.85117,0.13190
853.36138,0.14889
851.87159,0.15501
850.38180,0.16115
848.89202,0.20110
847.40223,0.21884
845.91244,0.21614
844.42265,0.22392
842.93286,0.23172
841.44307,0.24560
839.95329,0.26390
838.46350,0.29698
836.97371,0.28914
835.48392,0.28517
833.99413,0.28123
832.50434,0.27985
831.01455,0.28531
829.52477,0.27715
828.03498,0.24524
826.54519,0.23251
825.05540,0.21980
823.56561,0.19368
822.07582,0.17794
820.58604,0.15892
819.09625,0.15896
817.60646,0.15903
816.11667,0.15901
814.62688,0.13810
813.13709,0.13174
811.64730,0.13752
810.15752,0.13826
808.66773,0.13902
807.17794,0.16071
805.68815,0.15008
804.19836,0.15311
802.70857,0.15122
801.21879,0.14934
799.72900,0.16346
798.23921,0.16020
796.74942,0.15918
795.25963,0.15058
793.76984,0.14201
792.28006,0.14809
790.79027,0.16345
789.30048,0.19094
787.81069,0.19380
786.32090,0.22628
784.83111,0.25879
783.34132,0.28154
781.85154,0.32411
780.36175,0.34096
778.87196,0.36597
777.38217,0.39101
775.89238,0.42575
774.40259,0.44248
772.91281,0.40420
771.42302,0.40314
769.93323,0.40210
768.44344,0.36059
766.95365,0.30392
765.46386,0.27566
763.97407,0.21947
762.48429,0.19985
760.99450,0.18025
759.50471,0.14967
758.01492,0.11779
756.52513,0.10376
755.03534,0.10165
753.54556,0.09956
752.05577,0.09375
750.56598,0.09127
749.07619,0.05095
747.58640,0.04840
746.09661,0.04588
744.60683,0.03557
743.11704,0.01868
741.62725,0.01898
740.13746,0.02294
738.64767,0.02693
737.15788,0.00617
735.66809,0.01632
734.17831,0.01857
732.68852,0.02030
731.19873,0.02205
729.70894,0.02195
728.21915,0.01924
726.72936,0.00708
725.23958,0.02221
723.74979,0.01602
722.26000,0.00985
720.77021,0.00547
719.28042,0.02928
717.79063,0.02010
716.30084,0.01183
714.81106,0.00358
713.32127,0.01760
711.83148,0.01404
710.34169,0.02415
708.85190,0.02824
707.36211,0.03234
705.87233,0.02162
704.38254,0.04371
702.89275,0.04646
701.40296,0.05000
699.91317,0.05357
698.42338,0.07488
696.93360,0.07728
695.44381,0.09534
693.95402,0.10340
692.46423,0.11149
690.97444,0.12522
689.48465,0.12686
687.99486,0.15098
686.50508,0.16731
685.01529,0.18367
683.52550,0.22173
682.03571,0.21623
680.54592,0.22748
679.05613,0.23337
677.56635,0.23927
676.07656,0.25566
674.58677,0.23862
673.09698,0.21675
671.60719,0.20669
670.11740,0.19665
668.62761,0.17442
667.13783,0.13526
665.64804,0.13245
664.15825,0.12966
662.66846,0.10665
661.17867,0.06385
659.68888,0.07566
658.19910,0.06394
656.70931,0.05224
655.21952,0.03859
653.72973,0.04412
652.23994,0.04702
650.75015,0.04962
649.26037,0.05225
647.77058,0.04070
646.28079,0.03049
644.79100,0.03704
643.30121,0.04207
641.81142,0.04713
640.32163,0.05177
638.83185,0.05291
637.34206,0.03295
635.85227,0.02005
634.36248,0.00717
632.87269,0.02218
631.38290,0.00617
629.89312,0.02476
628.40333,0.01938
626.91354,0.01403
625.42375,0.02036
623.93396,0.02738
622.44417,0.02761
620.95438,0.02785
619.46460,0.04331
617.97481,0.05593
616.48502,0.08420
614.99523,0.10039
613.50544,0.11660
612.01565,0.13328
610.52587,0.16407
609.03608,0.17771
607.54629,0.20327
606.05650,0.22885
604.56671,0.26876
603.07692,0.32168
601.58714,0.32807
600.09735,0.33448
598.60756,0.36436
597.11777,0.40990
595.62798,0.43234
594.13819,0.42377
592.64840,0.41523
591.15862,0.38536
589.66883,0.32932
588.17904,0.28388
586.68925,0.25364
585.19946,0.22342
583.70967,0.18751
582.21989,0.14524
580.73010,0.13150
579.24031,0.11778
577.75052,0.07690
576.26073,0.06840
574.77094,0.07468
573.28115,0.08087
571.79137,0.08708
570.30158,0.09078
568.81179,0.11300
567.32200,0.11037
565.83221,0.10776
564.34242,0.11971
562.85264,0.14929
561.36285,0.17030
559.87306,0.17847
558.38327,0.18666
556.89348,0.18310
555.40369,0.19166
553.91391,0.20268
552.42412,0.21371
550.93433,0.23710
549.44454,0.20482
547.95475,0.21835
546.46496,0.22971
544.97517,0.24108
543.48539,0.26217
541.99560,0.28548
540.50581,0.30430
539.01602,0.32315
537.52623,0.34830
536.03644,0.38557
534.54666,0.42419
533.05687,0.43851
531.56708,0.45286
530.07729,0.49639
528.58750,0.52696
527.09771,0.56680
525.60792,0.60667
524.11814,0.67825
522.62835,0.69879
521.13856,0.75238
519.64877,0.77682
518.15898,0.80129
516.66919,0.84548
515.17941,0.88133
513.68962,0.87780
512.19983,0.87430
510.71004,0.80083
509.22025,0.76634
507.73046,0.69159
506.24068,0.63679
504.75089,0.58202
503.26110,0.47719
501.77131,0.36072
500.28152,0.32351
498.79173,0.28633
497.30194,0.23729
495.81216,0.18012
494.32237,0.15655
492.83258,0.13300
491.34279,0.11179
489.85300,0.09280
488.36321,0.10113
486.87343,0.08032
485.38364,0.05953
483.89385,0.08532
482.40406,0.11422
480.91427,0.11408
479.42448,0.11397
477.93469,0.14228
476.44491,0.15058
474.95512,0.16969
473.46533,0.18883
471.97554,0.21965
470.48575,0.22277
468.99596,0.21138
467.50618,0.19661
466.01639,0.18186
464.52660,0.15271
463.03681,0.12843
461.54702,0.10726
460.05723,0.08611
458.56745,0.04562
457.07766,0.04323
455.58787,0.03316
454.09808,0.02311
452.60829,0.01177
451.11850,0.00617
449.62871,0.01166
448.13893,0.01717
446.64914,0.01621
445.15935,0.03178
443.66956,0.00908
442.17977,0.01678
440.68998,0.02450
439.20020,0.01772
437.71041,0.04310
436.22062,0.05210
434.73083,0.06113
433.24104,0.04982
431.75125,0.04162
430.26146,0.03069
428.77168,0.01979
427.28189,0.04643
425.79210,0.04978
424.30231,0.05193
422.81252,0.05411
421.32273,0.04937
419.83295,0.04335
418.34316,0.03844
416.85337,0.03356
415.36358,0.02827
413.87379,0.03048
412.38400,0.03613
410.89422,0.04180
409.40443,0.03396
407.91464,0.04903
406.42485,0.06281
404.93506,0.05790
403.44527,0.05302
401.95548,0.04860
400.46570,0.04465
398.97591,0.03763
397.48612,0.03064
395.99633,0.04283
394.50654,0.03457
393.01675,0.03976
391.52697,0.04497
390.03718,0.02930
388.54739,0.01938
387.05760,0.03701
385.56781,0.05467
384.07802,0.03933
382.58824,0.03634
381.09845,0.03723
379.60866,0.03815
378.11887,0.02379
376.62908,0.02574
375.13929,0.01594
373.64950,0.00617
372.15972,0.02228
370.66993,0.03379
369.18014,0.04013
367.69035,0.04650
366.20056,0.04530
364.71077,0.01880
363.22099,0.02260
361.73120,0.02642
360.24141,0.02686
358.75162,0.05769
357.26183,0.05960
355.77204,0.06154
354.28225,0.07550
352.79247,0.06923
351.30268,0.07134
349.81289,0.07349
348.32310,0.08006
346.83331,0.08137
345.34352,0.06190
343.85374,0.04246
342.36395,0.05089
340.87416,0.02676
339.38437,0.02742
337.89458,0.02811
336.40479,0.03465
334.91501,0.04606
333.42522,0.04329
331.93543,0.04055
330.44564,0.04124
328.95585,0.02325
327.46606,0.02158
325.97627,0.01992
324.48649,0.01059
322.99670,0.02245
321.50691,0.02157
320.01712,0.02071
318.52733,0.05950
317.03754,0.09280
315.54776,0.11887
314.05797,0.14497
312.56818,0.12838
311.07839,0.05877
309.58860,0.04069
308.09881,0.02264
306.60902,0.01187
305.11924,0.02182
303.62945,0.01540
302.13966,0.00900
300.64987,0.01439
299.16008,0.00617
