1778.52000,0.00800
1777.03021,0.00814
1775.54042,0.00458
1774.05063,0.00955
1772.56085,0.01454
1771.07106,0.01624
1769.58127,0.01277
1768.09148,0.00580
1766.60169,0.00965
1765.11190,0.01041
1763.62212,0.01451
1762.13233,0.01760
1760.64254,0.01968
1759.15275,0.02136
1757.66296,0.02245
1756.17317,0.01401
1754.68339,0.00580
1753.19360,0.01015
1751.70381,0.01348
1750.21402,0.01559
1748.72423,0.01170
1747.23444,0.02300
1745.74465,0.02020
1744.25487,0.01742
1742.76508,0.01799
1741.27529,0.01859
1739.78550,0.01651
1738.29571,0.02384
1736.80592,0.02352
1735.31614,0.02219
1733.82635,0.01590
1732.33656,0.00963
1730.84677,0.00920
1729.35698,0.01378
1727.86719,0.00904
1726.37740,0.01906
1724.88762,0.01229
1723.39783,0.01095
1721.90804,0.00797
1720.41825,0.00957
1718.92846,0.00560
1717.43867,0.02221
1715.94889,0.01683
1714.45910,0.02248
1712.96931,0.00761
1711.47952,0.01196
1709.98973,0.01261
1708.49994,0.00580
1707.01016,0.00854
1705.52037,0.01129
1704.03058,0.01958
1702.54079,0.01273
1701.05100,0.01296
1699.56121,0.01509
1698.07142,0.02057
1696.58164,0.01693
1695.09185,0.01228
1693.60206,0.01492
1692.11227,0.01821
1690.62248,0.02298
1689.13269,0.02756
1687.64291,0.02885
1686.15312,0.02372
1684.66333,0.03377
1683.17354,0.02662
1681.68375,0.03527
1680.19396,0.03169
1678.70417,0.03520
1677.21439,0.04475
1675.72460,0.04166
1674.23481,0.03216
1672.74502,0.04740
1671.25523,0.05269
1669.76544,0.05945
1668.27566,0.05690
1666.78587,0.06102
1665.29608,0.06039
1663.80629,0.06497
1662.31650,0.06542
1660.82671,0.06445
1659.33693,0.06619
1657.84714,0.07814
1656.35735,0.06769
1654.86756,0.07470
1653.37777,0.06159
1651.88798,0.07737
1650.39819,0.07262
1648.90841,0.07496
1647.41862,0.06901
1645.92883,0.07181
1644.43904,0.07463
1642.94925,0.07228
1641.45946,0.07764
1639.96968,0.07992
1638.47989,0.09052
1636.99010,0.07602
1635.50031,0.08003
1634.01052,0.08198
1632.52073,0.06942
1631.03094,0.06125
1629.54116,0.07158
1628.05137,0.07405
1626.56158,0.07633
1625.07179,0.08279
1623.58200,0.08409
1622.09221,0.08686
1620.60243,0.09298
1619.11264,0.07545
1617.62285,0.09532
1616.13306,0.07265
1614.64327,0.08676
1613.15348,0.09943
1611.66370,0.09012
1610.17391,0.08001
1608.68412,0.09359
1607.19433,0.08394
1605.70454,0.07909
1604.21475,0.08090
1602.72496,0.08275
1601.23518,0.08960
1599.74539,0.07841
1598.25560,0.08821
1596.76581,0.07832
1595.27602,0.08443
1593.78623,0.08123
1592.29645,0.08553
1590.80666,0.08507
1589.31687,0.07052
1587.82708,0.07925
1586.33729,0.07202
1584.84750,0.09222
1583.35771,0.09147
1581.86793,0.07642
1580.37814,0.07364
1578.88835,0.06902
1577.39856,0.05965
1575.90877,0.06276
1574.41898,0.05697
1572.92920,0.04892
1571.43941,0.04857
1569.94962,0.03953
1568.45983,0.03051
1566.97004,0.03709
1565.48025,0.01961
1563.99047,0.03516
1562.50068,0.02583
1561.01089,0.03022
1559.52110,0.03422
1558.03131,0.03036
1556.54152,0.02423
1555.05173,0.04056
1553.56195,0.04382
1552.07216,0.03092
1550.58237,0.01887
1549.09258,0.00000
1547.60279,0.01102
1546.11300,0.00795
1544.62322,0.01735
1543.13343,0.02347
1541.64364,0.02565
1540.15385,0.01500
1538.66406,0.00436
1537.17427,0.01229
1535.68448,0.00903
1534.19470,0.00580
1532.70491,0.01080
1531.21512,0.01520
1529.72533,0.01754
1528.23554,0.03902
1526.74575,0.04681
1525.25597,0.04445
1523.76618,0.03465
1522.27639,0.03961
1520.78660,0.03338
1519.29681,0.03071
1517.80702,0.03885
1516.31724,0.03747
1514.82745,0.04650
1513.33766,0.04756
1511.84787,0.04864
1510.35808,0.04611
1508.86829,0.04444
1507.37850,0.05151
1505.88872,0.05341
1504.39893,0.05763
1502.90914,0.05730
1501.41935,0.06239
1499.92956,0.07042
1498.43977,0.09196
1496.94999,0.09193
1495.46020,0.10709
1493.97041,0.11148
1492.48062,0.11568
1490.99083,0.11782
1489.50104,0.11730
1488.01125,0.12375
1486.52147,0.13023
1485.03168,0.16653
1483.54189,0.18022
1482.05210,0.20556
1480.56231,0.21058
1479.07252,0.22621
1477.58274,0.24041
1476.09295,0.27063
1474.60316,0.26723
1473.11337,0.28192
1471.62358,0.29020
1470.13379,0.29227
1468.64401,0.31181
1467.15422,0.33553
1465.66443,0.34390
1464.17464,0.35230
1462.68485,0.37879
1461.19506,0.39970
1459.70527,0.44471
1458.21549,0.48851
1456.72570,0.54333
1455.23591,0.61541
1453.74612,0.66156
1452.25633,0.72975
1450.76654,0.78965
1449.27676,0.76902
1447.78697,0.76294
1446.29718,0.73759
1444.80739,0.71080
1443.31760,0.68404
1441.82781,0.61847
1440.33802,0.58885
1438.84824,0.54576
1437.35845,0.52470
1435.86866,0.51010
1434.37887,0.53850
1432.88908,0.55967
1431.39929,0.60743
1429.90951,0.69051
1428.41972,0.75846
1426.92993,0.85924
1425.44014,0.89547
1423.95035,0.90287
1422.46056,0.91029
1420.97078,0.91628
1419.48099,0.96839
1417.99120,0.95471
1416.50141,0.94624
1415.01162,0.91350
1413.52183,0.83802
1412.03204,0.81571
1410.54226,0.73218
1409.05247,0.69020
1407.56268,0.63142
1406.07289,0.56686
1404.58310,0.54218
1403.09331,0.51753
1401.60353,0.46425
1400.11374,0.41328
1398.62395,0.37956
1397.13416,0.31971
1395.64437,0.26092
1394.15458,0.23600
1392.66479,0.20363
1391.17501,0.16360
1389.68522,0.11093
1388.19543,0.08881
1386.70564,0.07792
1385.21585,0.06705
1383.72606,0.05497
1382.23628,0.03294
1380.74649,0.02277
1379.25670,0.01657
1377.76691,0.02015
1376.27712,0.01608
1374.78733,0.00580
1373.29755,0.00861
1371.80776,0.01912
1370.31797,0.00702
1368.82818,0.00881
1367.33839,0.01062
1365.84860,0.01194
1364.35881,0.03135
1362.86903,0.05950
1361.37924,0.06504
1359.88945,0.07185
1358.39966,0.09551
1356.90987,0.12916
1355.42008,0.16739
1353.93030,0.23369
1352.44051,0.26979
1350.95072,0.30592
1349.46093,0.38620
1347.97114,0.43452
1346.48135,0.50384
1344.99156,0.58565
1343.50178,0.58920
1342.01199,0.67603
1340.52220,0.72822
1339.03241,0.79517
1337.54262,0.85965
1336.05283,0.89135
1334.56305,0.92308
1333.07326,0.94653
1331.58347,0.91518
1330.09368,0.89570
1328.60389,0.91237
1327.11410,0.88670
1325.62432,0.86605
1324.13453,0.82403
1322.64474,0.75775
1321.15495,0.69938
1319.66516,0.68660
1318.17537,0.67385
1316.68558,0.62801
1315.19580,0.58074
1313.70601,0.54596
1312.21622,0.52137
1310.72643,0.50324
1309.23664,0.46499
1307.74685,0.42055
1306.25707,0.39169
1304.76728,0.37200
1303.27749,0.35233
1301.78770,0.32978
1300.29791,0.28961
1298.80812,0.24240
1297.31834,0.21743
1295.82855,0.17754
1294.33876,0.13933
1292.84897,0.12793
1291.35918,0.12112
1289.86939,0.10551
1288.37960,0.08993
1286.88982,0.07863
1285.40003,0.08935
1283.91024,0.07769
1282.42045,0.06355
1280.93066,0.05463
1279.44087,0.03514
1277.95109,0.03935
1276.46130,0.03278
1274.97151,0.03040
1273.48172,0.02803
1271.99193,0.00970
1270.50214,0.00967
1269.01235,0.01943
1267.52257,0.01072
1266.03278,0.01180
1264.54299,0.02038
1263.05320,0.01590
1261.56341,0.01633
1260.07362,0.01678
1258.58384,0.01072
1257.09405,0.01360
1255.60426,0.01132
1254.11447,0.02402
1252.62468,0.00933
1251.13489,0.01584
1249.64511,0.00826
1248.15532,0.02035
1246.66553,0.02375
1245.17574,0.02717
1243.68595,0.01940
1242.19616,0.01124
1240.70637,0.00580
1239.21659,0.03269
1237.72680,0.03261
1236.23701,0.03297
1234.74722,0.03294
1233.25743,0.02993
1231.76764,0.02694
1230.27786,0.01473
1228.78807,0.01957
1227.29828,0.01468
1225.80849,0.02414
1224.31870,0.02761
1222.82891,0.00784
1221.33912,0.02177
1219.84934,0.01715
1218.35955,0.01255
1216.86976,0.04379
1215.37997,0.05699
1213.89018,0.07666
1212.40039,0.08472
1210.91061,0.07225
1209.42082,0.05980
1207.93103,0.06191
1206.44124,0.06405
1204.95145,0.04939
1203.46166,0.06050
1201.97188,0.07185
1200.48209,0.05664
1198.99230,0.05371
1197.50251,0.05454
1196.01272,0.04978
1194.52293,0.04827
1193.03314,0.04679
1191.54336,0.02550
1190.05357,0.01918
1188.56378,0.02369
1187.07399,0.03174
1185.58420,0.01616
1184.09441,0.02198
1182.60463,0.01599
1181.11484,0.01003
1179.62505,0.00575
1178.13526,0.01075
1176.64547,0.00580
1175.15568,0.01553
1173.66589,0.00660
1172.17611,0.01202
1170.68632,0.01860
1169.19653,0.02521
1167.70674,0.02115
1166.21695,0.03061
1164.72716,0.03719
1163.23738,0.04503
1161.74759,0.06453
1160.25780,0.07118
1158.76801,0.07641
1157.27822,0.08165
1155.78843,0.08671
1154.29865,0.07208
1152.80886,0.08466
1151.31907,0.10786
1149.82928,0.12382
1148.33949,0.12610
1146.84970,0.12082
1145.35991,0.11557
1143.87013,0.13453
1142.38034,0.14583
1140.89055,0.14574
1139.40076,0.15688
1137.91097,0.18674
1136.42118,0.20333
1134.93140,0.21050
1133.44161,0.21769
1131.95182,0.22003
1130.46203,0.24627
1128.97224,0.23827
1127.48245,0.22885
1125.99266,0.24831
1124.50288,0.28316
1123.01309,0.28408
1121.52330,0.28503
1120.03351,0.25559
1118.54372,0.24341
1117.05393,0.24142
1115.56415,0.25026
1114.07436,0.24583
1112.58457,0.23530
1111.09478,0.22479
1109.60499,0.21815
1108.11520,0.23500
1106.62542,0.24709
1105.13563,0.22910
1103.64584,0.23170
1102.15605,0.22829
1100.66626,0.22273
1099.17647,0.21720
1097.68668,0.20909
1096.19690,0.20724
1094.70711,0.20769
1093.21732,0.21523
1091.72753,0.22549
1090.23774,0.22228
1088.74795,0.21910
1087.25817,0.20950
1085.76838,0.19910
1084.27859,0.19142
1082.78880,0.20099
1081.29901,0.20852
1079.80922,0.19697
1078.31943,0.20184
1076.82965,0.20674
1075.33986,0.23741
1073.85007,0.21786
1072.36028,0.25065
1070.87049,0.29614
1069.38070,0.30323
1067.89092,0.32115
1066.40113,0.33909
1064.91134,0.36578
1063.42155,0.46205
1061.93176,0.55273
1060.44197,0.63742
1058.95219,0.76013
1057.46240,0.79908
1055.97261,0.83806
1054.48282,0.97745
1052.99303,1.03236
1051.50324,1.04224
1050.01345,1.01747
1048.52367,1.03862
1047.03388,1.02563
1045.54409,1.01266
1044.05430,0.98695
1042.56451,0.93324
1041.07472,0.79131
1039.58494,0.71958
1038.09515,0.63853
1036.60536,0.62291
1035.11557,0.60731
1033.62578,0.49478
1032.13599,0.42816
1030.64620,0.38170
1029.15642,0.33173
1027.66663,0.30152
1026.17684,0.27132
1024.68705,0.23846
1023.19726,0.21682
1021.70747,0.18754
1020.21769,0.16616
1018.72790,0.15332
1017.23811,0.15224
1015.74832,0.15118
1014.25853,0.12762
1012.76874,0.11073
1011.27896,0.09469
1009.78917,0.08179
1008.29938,0.09072
1006.80959,0.07942
1005.31980,0.06815
1003.83001,0.03999
1002.34022,0.03199
1000.85044,0.02588
999.36065,0.04242
997.87086,0.04124
996.38107,0.04008
994.89128,0.06106
993.40149,0.10844
991.91171,0.13382
990.42192,0.12477
988.93213,0.15602
987.44234,0.15844
985.95255,0.16088
984.46276,0.14382
982.97297,0.12555
981.48319,0.12411
979.99340,0.10693
978.50361,0.09807
977.01382,0.08923
975.52403,0.05177
974.03424,0.05939
972.54446,0.03277
971.05467,0.03774
969.56488,0.01449
968.07509,0.01639
966.58530,0.01832
965.09551,0.02463
963.60573,0.01809
962.11594,0.00721
960.62615,0.00591
959.13636,0.00585
957.64657,0.00580
956.15678,0.02123
954.66699,0.02401
953.17721,0.04260
951.68742,0.05312
950.19763,0.05795
948.70784,0.06281
947.21805,0.07090
945.72826,0.07882
944.23848,0.08697
942.74869,0.10676
941.25890,0.12077
939.76911,0.12609
938.27932,0.13142
936.78953,0.15423
935.29974,0.19844
933.80996,0.20198
932.32017,0.20928
930.83038,0.21578
929.34059,0.22230
927.85080,0.22615
926.36101,0.26241
924.87123,0.29163
923.38144,0.32192
921.89165,0.35431
920.40186,0.38672
918.91207,0.49806
917.42228,0.59904
915.93250,0.76191
914.44271,0.96052
912.95292,1.07351
911.46313,1.18652
909.97334,1.39061
908.48355,1.56793
906.99376,1.74424
905.50398,1.86077
904.01419,1.90622
902.52440,1.95170
901.03461,2.00000
899.54482,1.94970
898.05503,1.78565
896.56525,1.55830
895.07546,1.44351
893.58567,1.32874
892.09588,1.10457
890.60609,0.87586
889.11630,0.64095
887.62651,0.47500
886.13673,0.40841
884.64694,0.34185
883.15715,0.25072
881.66736,0.20320
880.17757,0.13827
878.68778,0.11220
877.19800,0.08614
875.70821,0.07381
874.21842,0.06213
872.72863,0.06086
871.23884,0.03740
869.74905,0.03991
868.25927,0.04244
866.76948,0.05040
865.27969,0.05548
863.78990,0.04272
862.30011,0.04910
860.81032,0.06079
859.32053,0.07250
857.83075,0.10386
856.34096,0.12465
854.85117,0.13011
853.36138,0.13185
851.87159,0.14109
850.38180,0.15035
848.89202,0.16421
847.40223,0.19865
845.91244,0.19906
844.42265,0.20987
842.93286,0.22071
841.44307,0.23137
839.95329,0.23686
838.46350,0.27040
836.97371,0.29380
835.48392,0.28628
833.99413,0.27879
832.50434,0.27755
831.01455,0.26097
829.52477,0.23798
828.03498,0.22332
826.54519,0.22134
825.05540,0.21940
823.56561,0.18363
822.07582,0.17322
820.58604,0.16138
819.09625,0.14873
817.60646,0.13610
816.11667,0.14385
814.62688,0.14664
813.13709,0.14613
811.64730,0.14337
810.15752,0.14426
808.66773,0.14517
807.17794,0.13853
805.68815,0.15102
804.19836,0.15502
802.70857,0.15914
801.21879,0.16329
799.72900,0.15927
798.23921,0.14509
796.74942,0.15378
795.25963,0.15668
793.76984,0.15960
792.28006,0.14241
790.79027,0.16033
789.30048,0.19530
787.81069,0.21576
786.32090,0.23469
784.83111,0.25364
783.34132,0.29826
781.85154,0.31384
780.36175,0.38342
778.87196,0.39385
777.38217,0.40431
775.89238,0.43908
774.40259,0.44606
772.91281,0.41797
771.42302,0.39645
769.93323,0.37495
768.44344,0.34984
766.95365,0.29548
765.46386,0.27354
763.97407,0.23501
762.48429,0.21622
760.99450,0.19747
759.50471,0.15299
758.01492,0.12784
756.52513,0.11227
755.03534,0.10773
753.54556,0.10321
752.05577,0.10703
750.56598,0.07785
749.07619,0.07340
747.58640,0.06473
746.09661,0.05608
744.60683,0.05461
743.11704,0.05836
741.62725,0.03328
740.13746,0.03479
738.64767,0.03633
737.15788,0.01859
735.66809,0.02329
734.17831,0.03196
732.68852,0.02529
731.19873,0.01865
729.70894,0.00580
728.21915,0.03787
726.72936,0.02678
725.23958,0.03399
723.74979,0.02876
722.26000,0.02356
720.77021,0.01900
719.28042,0.01302
717.79063,0.01246
716.30084,0.00912
714.81106,0.00580
713.32127,0.01177
711.83148,0.02295
710.34169,0.02647
708.85190,0.03168
707.36211,0.03691
705.87233,0.03490
704.38254,0.04059
702.89275,0.04424
701.40296,0.04479
699.91317,0.04537
698.42338,0.07857
696.93360,0.09601
695.44381,0.09625
693.95402,0.10139
692.46423,0.10655
690.97444,0.12949
689.48465,0.14000
687.99486,0.15696
686.50508,0.17634
685.01529,0.19575
683.52550,0.20946
682.03571,0.22404
680.54592,0.25255
679.05613,0.25554
677.56635,0.25856
676.07656,0.26181
674.58677,0.22855
673.09698,0.20299
671.60719,0.21441
670.11740,0.22585
668.62761,0.20369
667.13783,0.14978
665.64804,0.13514
664.15825,0.12052
662.66846,0.10489
661.17867,0.08015
659.68888,0.05688
658.19910,0.04849
656.70931,0.04012
655.21952,0.03167
653.72973,0.03217
652.23994,0.05470
650.75015,0.04570
649.26037,0.03673
647.77058,0.02840
646.28079,0.01781
644.79100,0.04919
643.30121,0.03751
641.81142,0.02585
640.32163,0.03425
638.83185,0.01424
637.34206,0.02726
635.85227,0.01871
634.36248,0.01018
632.87269,0.00895
631.38290,0.00818
629.89312,0.00765
628.40333,0.01104
626.91354,0.01446
625.42375,0.01064
623.93396,0.00580
622.44417,0.02026
620.95438,0.03475
619.46460,0.03431
617.97481,0.04282
616.48502,0.07357
614.99523,0.09781
613.50544,0.12207
612.01565,0.14916
610.52587,0.14990
609.03608,0.18036
607.54629,0.20773
606.05650,0.23513
604.56671,0.27106
603.07692,0.30411
601.58714,0.32649
600.09735,0.34889
598.60756,0.39447
597.11777,0.40249
595.62798,0.41448
594.13819,0.39297
592.64840,0.37148
591.15862,0.36423
589.66883,0.32525
588.17904,0.29106
586.68925,0.26552
585.19946,0.23999
583.70967,0.16166
582.21989,0.12591
580.73010,0.10108
579.24031,0.07628
577.75052,0.06199
576.26073,0.03090
574.77094,0.02642
573.28115,0.02808
571.79137,0.02977
570.30158,0.05962
568.81179,0.08326
567.32200,0.10039
565.83221,0.11754
564.34242,0.11966
562.85264,0.12056
561.36285,0.14785
559.87306,0.15700
558.38327,0.16618
556.89348,0.17112
555.40369,0.17920
553.91391,0.19219
552.42412,0.20520
550.93433,0.20442
549.44454,0.20533
547.95475,0.19527
546.46496,0.20163
544.97517,0.20801
543.48539,0.23912
541.99560,0.28189
540.50581,0.29925
539.01602,0.31663
537.52623,0.33082
536.03644,0.35748
534.54666,0.39850
533.05687,0.43145
531.56708,0.46442
530.07729,0.47624
528.58750,0.51383
527.09771,0.54189
525.60792,0.56997
524.11814,0.62258
522.62835,0.69764
521.13856,0.75382
519.64877,0.78097
518.15898,0.80814
516.66919,0.86855
515.17941,0.84490
513.68962,0.84889
512.19983,0.85290
510.71004,0.80731
509.22025,0.75905
507.73046,0.67365
506.24068,0.61651
504.75089,0.55940
503.26110,0.47864
501.77131,0.36530
500.28152,0.33099
498.79173,0.29671
497.30194,0.22373
495.81216,0.18026
494.32237,0.15425
492.83258,0.12826
491.34279,0.07531
489.85300,0.06017
488.36321,0.06353
486.87343,0.07398
485.38364,0.08445
483.89385,0.09038
482.40406,0.09218
480.91427,0.09909
479.42448,0.10602
477.93469,0.13053
476.44491,0.14841
474.95512,0.16227
473.46533,0.17616
471.97554,0.18290
470.48575,0.22082
468.99596,0.20311
467.50618,0.19041
466.01639,0.17774
464.52660,0.13644
463.03681,0.12090
461.54702,0.10737
460.05723,0.09386
458.56745,0.06386
457.07766,0.03099
455.58787,0.02876
454.09808,0.02656
452.60829,0.00580
451.11850,0.00993
449.62871,0.00941
448.13893,0.00892
446.64914,0.00876
445.15935,0.02752
443.66956,0.01163
442.17977,0.02245
440.68998,0.03329
439.20020,0.02931
437.71041,0.04549
436.22062,0.04436
434.73083,0.04326
433.24104,0.03937
431.75125,0.06437
430.26146,0.05213
428.77168,0.03991
427.28189,0.05274
425.79210,0.04939
424.30231,0.04555
422.81252,0.04173
421.32273,0.04074
419.83295,0.03853
418.34316,0.03717
416.85337,0.03584
415.36358,0.02789
413.87379,0.03470
412.38400,0.03137
410.89422,0.02806
409.40443,0.02477
407.91464,0.02151
406.42485,0.04941
404.93506,0.04464
403.44527,0.03990
401.95548,0.04649
400.46570,0.03069
398.97591,0.02985
397.48612,0.02905
395.99633,0.03117
394.50654,0.02792
393.01675,0.02511
391.52697,0.02232
390.03718,0.02810
388.54739,0.04367
387.05760,0.03777
385.56781,0.03190
384.07802,0.00580
382.58824,0.02574
381.09845,0.02349
379.60866,0.02126
378.11887,0.02777
376.62908,0.02808
375.13929,0.03288
373.64950,0.03771
372.15972,0.01629
370.66993,0.02085
369.18014,0.02626
367.69035,0.03168
366.20056,0.04513
364.71077,0.03120
363.22099,0.04085
361.73120,0.05053
360.24141,0.02151
358.75162,0.00580
357.26183,0.00675
355.77204,0.00772
354.28225,0.06322
352.79247,0.09092
351.30268,0.08200
349.81289,0.07311
348.32310,0.07264
346.83331,0.08632
345.34352,0.07075
343.85374,0.05521
342.36395,0.06647
340.87416,0.06343
339.38437,0.04007
337.89458,0.01673
336.40479,0.00919
334.91501,0.03345
333.42522,0.01994
331.93543,0.00646
330.44564,0.01106
328.95585,0.03791
327.46606,0.04100
325.97627,0.04412
324.48649,0.02931
322.99670,0.04068
321.50691,0.03256
320.01712,0.02446
318.52733,0.05127
317.03754,0.04509
315.54776,0.06987
314.05797,0.09467
312.56818,0.11390
311.07839,0.09972
309.58860,0.09407
308.09881,0.08845
306.60902,0.08161
305.11924,0.06234
303.62945,0.03406
302.13966,0.00580
300.64987,0.03029
299.16008,0.00580
