1778.52000,0.02012
1777.03021,0.01262
1775.54042,0.00488
1774.05063,0.01632
1772.56085,0.01195
1771.07106,0.01552
1769.58127,0.02039
1768.09148,0.01686
1766.60169,0.02204
1765.11190,0.01013
1763.62212,0.01612
1762.13233,0.01498
1760.64254,0.01234
1759.15275,0.02146
1757.66296,0.01759
1756.17317,0.01425
1754.68339,0.00813
1753.19360,0.00689
1751.70381,0.01665
1750.21402,0.01315
1748.72423,0.01121
1747.23444,0.01645
1745.74465,0.02605
1744.25487,0.01754
1742.76508,0.00982
1741.27529,0.01437
1739.78550,0.01103
1738.29571,0.01505
1736.80592,0.01935
1735.31614,0.02087
1733.82635,0.02011
1732.33656,0.01070
1730.84677,0.00591
1729.35698,0.01288
1727.86719,0.01963
1726.37740,0.03074
1724.88762,0.01098
1723.39783,0.00937
1721.90804,0.01468
1720.41825,0.01210
1718.92846,0.01133
1717.43867,0.01109
1715.94889,0.00756
1714.45910,0.01058
1712.96931,0.02843
1711.47952,0.02026
1709.98973,0.01594
1708.49994,0.01701
1707.01016,0.01568
1705.52037,0.01437
1704.03058,0.01833
1702.54079,0.01566
1701.05100,0.02017
1699.56121,0.01143
1698.07142,0.00654
1696.58164,0.00934
1695.09185,0.02135
1693.60206,0.02036
1692.11227,0.01327
1690.62248,0.02434
1689.13269,0.01270
1687.64291,0.02253
1686.15312,0.02243
1684.66333,0.01649
1683.17354,0.01848
1681.68375,0.01973
1680.19396,0.01411
1678.70417,0.02613
1677.21439,0.02975
1675.72460,0.02778
1674.23481,0.03222
1672.74502,0.04153
1671.25523,0.04040
1669.76544,0.04133
1668.27566,0.05480
1666.78587,0.06242
1665.29608,0.05551
1663.80629,0.04684
1662.31650,0.04559
1660.82671,0.06250
1659.33693,0.05569
1657.84714,0.06601
1656.35735,0.06410
1654.86756,0.05123
1653.37777,0.06162
1651.88798,0.05391
1650.39819,0.06997
1648.90841,0.06205
1647.41862,0.06258
1645.92883,0.05675
1644.43904,0.05094
1642.94925,0.08602
1641.45946,0.06085
1639.96968,0.06865
1638.47989,0.06882
1636.99010,0.07846
1635.50031,0.06871
1634.01052,0.08350
1632.52073,0.08096
1631.03094,0.08124
1629.54116,0.10147
1628.05137,0.10462
1626.56158,0.10216
1625.07179,0.07829
1623.58200,0.07869
1622.09221,0.05614
1620.60243,0.05532
1619.11264,0.07623
1617.62285,0.07469
1616.13306,0.08339
1614.64327,0.08190
1613.15348,0.08094
1611.66370,0.08001
1610.17391,0.08523
1608.68412,0.08129
1607.19433,0.09396
1605.70454,0.09083
1604.21475,0.08836
1602.72496,0.08591
1601.23518,0.07008
1599.74539,0.07803
1598.25560,0.08293
1596.76581,0.07075
1595.27602,0.09409
1593.78623,0.08502
1592.29645,0.08543
1590.80666,0.08049
1589.31687,0.05745
1587.82708,0.06866
1586.33729,0.06354
1584.84750,0.08449
1583.35771,0.10164
1581.86793,0.07310
1580.37814,0.07651
1578.88835,0.08020
1577.39856,0.07165
1575.90877,0.06211
1574.41898,0.05744
1572.92920,0.05586
1571.43941,0.04001
1569.94962,0.04575
1568.45983,0.05153
1566.97004,0.04672
1565.48025,0.03658
1563.99047,0.01676
1562.50068,0.02072
1561.01089,0.00707
1559.52110,0.02180
1558.03131,0.02429
1556.54152,0.01430
1555.05173,0.02144
1553.56195,-0.00000
1552.07216,0.01460
1550.58237,0.03432
1549.09258,0.03288
1547.60279,0.01180
1546.11300,0.00376
1544.62322,0.01210
1543.13343,0.00488
1541.64364,0.01289
1540.15385,0.01021
1538.66406,0.00754
1537.17427,0.01044
1535.68448,0.01720
1534.19470,0.02321
1532.70491,0.00882
1531.21512,0.00543
1529.72533,0.00488
1528.23554,0.02651
1526.74575,0.01523
1525.25597,0.02185
1523.76618,0.02160
1522.27639,0.03491
1520.78660,0.03496
1519.29681,0.03095
1517.80702,0.04152
1516.31724,0.05518
1514.82745,0.04434
1513.33766,0.04630
1511.84787,0.04829
1510.35808,0.05055
1508.86829,0.05131
1507.37850,0.05413
1505.88872,0.04472
1504.39893,0.05678
1502.90914,0.07245
1501.41935,0.05187
1499.92956,0.06605
1498.43977,0.06698
1496.94999,0.07534
1495.46020,0.08780
1493.97041,0.06811
1492.48062,0.09493
1490.99083,0.10261
1489.50104,0.11645
1488.01125,0.11997
1486.52147,0.12352
1485.03168,0.12696
1483.54189,0.13962
1482.05210,0.16584
1480.56231,0.15556
1479.07252,0.17800
1477.58274,0.19407
1476.09295,0.21936
1474.60316,0.19667
1473.11337,0.20746
1471.62358,0.22414
1470.13379,0.21225
1468.64401,0.21595
1467.15422,0.24548
1465.66443,0.24272
1464.17464,0.23999
1462.68485,0.26831
1461.19506,0.31300
1459.70527,0.37354
1458.21549,0.41470
1456.72570,0.45027
1455.23591,0.51369
1453.74612,0.55058
1452.25633,0.64240
1450.76654,0.65738
1449.27676,0.63510
1447.78697,0.65626
1446.29718,0.64501
1444.80739,0.63851
1443.31760,0.63203
1441.82781,0.58459
1440.33802,0.52926
1438.84824,0.47727
1437.35845,0.46718
1435.86866,0.49236
1434.37887,0.48131
1432.88908,0.53820
1431.39929,0.54685
1429.90951,0.60303
1428.41972,0.65080
1426.92993,0.72848
1425.44014,0.76864
1423.95035,0.78699
1422.46056,0.80537
1420.97078,0.85632
1419.48099,0.86824
1417.99120,0.89115
1416.50141,0.87783
1415.01162,0.86990
1413.52183,0.84131
1412.03204,0.80380
1410.54226,0.75278
1409.05247,0.66731
1407.56268,0.56885
1406.07289,0.52710
1404.58310,0.50950
1403.09331,0.49193
1401.60353,0.43569
1400.11374,0.35701
1398.62395,0.33760
1397.13416,0.30365
1395.64437,0.27484
1394.15458,0.21438
1392.66479,0.19736
1391.17501,0.16300
1389.68522,0.12254
1388.19543,0.09895
1386.70564,0.09289
1385.21585,0.08684
1383.72606,0.06639
1382.23628,0.04469
1380.74649,0.03272
1379.25670,0.02664
1377.76691,0.01931
1376.27712,0.00869
1374.78733,0.01086
1373.29755,0.00488
1371.80776,0.00529
1370.31797,0.00902
1368.82818,0.01225
1367.33839,0.01551
1365.84860,0.01139
1364.35881,0.03666
1362.86903,0.02926
1361.37924,0.06173
1359.88945,0.05541
1358.39966,0.07899
1356.90987,0.12276
1355.42008,0.15379
1353.93030,0.23005
1352.44051,0.24938
1350.95072,0.26874
1349.46093,0.34022
1347.97114,0.41325
1346.48135,0.46460
1344.99156,0.53207
1343.50178,0.60492
1342.01199,0.66860
1340.52220,0.68736
1339.03241,0.74087
1337.54262,0.76147
1336.05283,0.78567
1334.56305,0.80989
1333.07326,0.86784
1331.58347,0.89364
1330.09368,0.85512
1328.60389,0.83500
1327.11410,0.79269
1325.62432,0.80174
1324.13453,0.77965
1322.64474,0.75504
1321.15495,0.70363
1319.66516,0.68341
1318.17537,0.66320
1316.68558,0.60855
1315.19580,0.56005
1313.70601,0.50724
1312.21622,0.49428
1310.72643,0.46425
1309.23664,0.41125
1307.74685,0.36644
1306.25707,0.35103
1304.76728,0.32492
1303.27749,0.29883
1301.78770,0.24800
1300.29791,0.22732
1298.80812,0.22608
1297.31834,0.20060
1295.82855,0.15139
1294.33876,0.11574
1292.84897,0.08242
1291.35918,0.07747
1289.86939,0.06653
1288.37960,0.05563
1286.88982,0.07449
1285.40003,0.07781
1283.91024,0.06889
1282.42045,0.06919
1280.93066,0.07870
1279.44087,0.05606
1277.95109,0.03703
1276.46130,0.02644
1274.97151,0.02980
1273.48172,0.03318
1271.99193,0.01602
1270.50214,0.02699
1269.01235,0.00963
1267.52257,0.02242
1266.03278,0.01890
1264.54299,0.02306
1263.05320,0.00836
1261.56341,0.01091
1260.07362,0.01348
1258.58384,0.01621
1257.09405,0.02943
1255.60426,0.02404
1254.11447,0.00488
1252.62468,0.01009
1251.13489,0.01022
1249.64511,0.00604
1248.15532,0.02676
1246.66553,0.02758
1245.17574,0.02843
1243.68595,0.02598
1242.19616,0.02126
1240.70637,0.00941
1239.21659,0.01572
1237.72680,0.01694
1236.23701,0.03019
1234.74722,0.04168
1233.25743,0.03059
1231.76764,0.01953
1230.27786,0.02292
1228.78807,0.00488
1227.29828,0.01327
1225.80849,0.01376
1224.31870,0.01760
1222.82891,0.02682
1221.33912,0.04476
1219.84934,0.04075
1218.35955,0.03677
1216.86976,0.04788
1215.37997,0.03756
1213.89018,0.06455
1212.40039,0.04407
1210.91061,0.04710
1209.42082,0.03893
1207.93103,0.04405
1206.44124,0.04920
1204.95145,0.04059
1203.46166,0.02944
1201.97188,0.03773
1200.48209,0.02766
1198.99230,0.03216
1197.50251,0.02622
1196.01272,0.04610
1194.52293,0.04238
1193.03314,0.03868
1191.54336,0.03207
1190.05357,0.01987
1188.56378,0.00488
1187.07399,0.01048
1185.58420,0.00563
1184.09441,0.00771
1182.60463,0.01312
1181.11484,0.01856
1179.62505,0.00666
1178.13526,0.01241
1176.64547,0.01128
1175.15568,0.01810
1173.66589,0.00451
1172.17611,0.01209
1170.68632,0.01230
1169.19653,0.01252
1167.70674,0.01380
1166.21695,0.00488
1164.72716,0.02346
1163.23738,0.03134
1161.74759,0.03618
1160.25780,0.03185
1158.76801,0.04287
1157.27822,0.05391
1155.78843,0.06192
1154.29865,0.07760
1152.80886,0.09153
1151.31907,0.08811
1149.82928,0.08906
1148.33949,0.11812
1146.84970,0.12142
1145.35991,0.12474
1143.87013,0.12783
1142.38034,0.12328
1140.89055,0.12948
1139.40076,0.14311
1137.91097,0.16519
1136.42118,0.15997
1134.93140,0.16614
1133.44161,0.17234
1131.95182,0.20499
1130.46203,0.23077
1128.97224,0.23205
1127.48245,0.22596
1125.99266,0.21223
1124.50288,0.19852
1123.01309,0.21038
1121.52330,0.22226
1120.03351,0.23876
1118.54372,0.25783
1117.05393,0.23710
1115.56415,0.22992
1114.07436,0.23477
1112.58457,0.22483
1111.09478,0.21492
1109.60499,0.18690
1108.11520,0.20870
1106.62542,0.22133
1105.13563,0.21381
1103.64584,0.20351
1102.15605,0.20498
1100.66626,0.19855
1099.17647,0.19215
1097.68668,0.20953
1096.19690,0.18709
1094.70711,0.20068
1093.21732,0.15760
1091.72753,0.15796
1090.23774,0.16614
1088.74795,0.17434
1087.25817,0.16736
1085.76838,0.16552
1084.27859,0.15068
1082.78880,0.15859
1081.29901,0.17189
1079.80922,0.16887
1078.31943,0.17341
1076.82965,0.17797
1075.33986,0.17119
1073.85007,0.17210
1072.36028,0.18196
1070.87049,0.19288
1069.38070,0.20586
1067.89092,0.22678
1066.40113,0.24773
1064.91134,0.27636
1063.42155,0.35787
1061.93176,0.43814
1060.44197,0.53885
1058.95219,0.56937
1057.46240,0.61012
1055.97261,0.65090
1054.48282,0.73920
1052.99303,0.80888
1051.50324,0.83620
1050.01345,0.82345
1048.52367,0.81379
1047.03388,0.81807
1045.54409,0.82237
1044.05430,0.79490
1042.56451,0.75801
1041.07472,0.70097
1039.58494,0.62072
1038.09515,0.55122
1036.60536,0.51468
1035.11557,0.47817
1033.62578,0.46236
1032.13599,0.40547
1030.64620,0.35677
1029.15642,0.29431
1027.66663,0.26826
1026.17684,0.24223
1024.68705,0.20589
1023.19726,0.18514
1021.70747,0.18026
1020.21769,0.15497
1018.72790,0.13711
1017.23811,0.11748
1015.74832,0.09788
1014.25853,0.09005
1012.76874,0.10651
1011.27896,0.12835
1009.78917,0.09863
1008.29938,0.06204
1006.80959,0.05549
1005.31980,0.04895
1003.83001,0.02061
1002.34022,0.02472
1000.85044,0.02043
999.36065,0.04476
997.87086,0.04422
996.38107,0.04370
994.89128,0.04436
993.40149,0.06854
991.91171,0.06924
990.42192,0.09525
988.93213,0.09652
987.44234,0.09589
985.95255,0.09529
984.46276,0.11118
982.97297,0.09722
981.48319,0.06567
979.99340,0.05252
978.50361,0.05319
977.01382,0.05388
975.52403,0.04566
974.03424,0.03389
972.54446,0.02699
971.05467,0.02267
969.56488,0.01072
968.07509,0.01105
966.58530,0.01140
965.09551,0.00488
963.60573,0.02811
962.11594,0.04038
960.62615,0.03454
959.13636,0.03167
957.64657,0.02882
956.15678,0.02510
954.66699,0.03519
953.17721,0.05271
951.68742,0.03707
950.19763,0.03778
948.70784,0.03853
947.21805,0.09215
945.72826,0.08988
944.23848,0.10499
942.74869,0.11017
941.25890,0.11206
939.76911,0.12648
938.27932,0.14093
936.78953,0.15386
935.29974,0.16887
933.80996,0.18467
932.32017,0.22806
930.83038,0.23765
929.34059,0.24726
927.85080,0.25396
926.36101,0.30589
924.87123,0.33204
923.38144,0.34060
921.89165,0.36246
920.40186,0.38435
918.91207,0.48415
917.42228,0.66517
915.93250,0.79490
914.44271,0.98389
912.95292,1.08863
911.46313,1.19340
909.97334,1.39983
908.48355,1.56874
906.99376,1.77165
905.50398,1.83846
904.01419,1.88002
902.52440,1.92161
901.03461,1.98033
899.54482,2.00000
898.05503,1.89891
896.56525,1.70974
895.07546,1.56912
893.58567,1.42852
892.09588,1.16665
890.60609,0.90097
889.11630,0.67336
887.62651,0.51651
886.13673,0.43937
884.64694,0.36224
883.15715,0.27620
881.66736,0.19913
880.17757,0.12591
878.68778,0.11694
877.19800,0.10799
875.70821,0.07212
874.21842,0.03934
872.72863,0.03851
871.23884,0.03106
869.74905,0.02977
868.25927,0.02850
866.76948,0.02189
865.27969,0.01888
863.78990,0.02969
862.30011,0.03311
860.81032,0.04601
859.32053,0.05893
857.83075,0.06625
856.34096,0.08612
854.85117,0.08072
853.36138,0.10497
851.87159,0.10423
850.38180,0.10350
848.89202,0.11634
847.40223,0.11872
845.91244,0.14744
844.42265,0.15396
842.93286,0.16051
841.44307,0.16682
839.95329,0.19308
838.46350,0.19281
836.97371,0.21809
835.48392,0.21263
833.99413,0.20719
832.50434,0.21442
831.01455,0.21248
829.52477,0.17890
828.03498,0.17113
826.54519,0.15828
825.05540,0.14545
823.56561,0.14261
822.07582,0.11528
820.58604,0.12168
819.09625,0.11750
817.60646,0.11335
816.11667,0.11855
814.62688,0.09976
813.13709,0.08713
811.64730,0.09725
810.15752,0.09820
808.66773,0.09918
807.17794,0.11192
805.68815,0.11218
804.19836,0.09765
802.70857,0.09744
801.21879,0.09726
799.72900,0.11754
798.23921,0.11894
796.74942,0.11908
795.25963,0.12142
793.76984,0.12379
792.28006,0.12095
790.79027,0.12706
789.30048,0.13244
787.81069,0.14959
786.32090,0.17250
784.83111,0.19544
783.34132,0.22390
781.85154,0.25391
780.36175,0.26249
778.87196,0.27302
777.38217,0.28357
775.89238,0.31367
774.40259,0.32849
772.91281,0.32519
771.42302,0.30826
769.93323,0.29135
768.44344,0.26616
766.95365,0.22517
765.46386,0.19544
763.97407,0.14964
762.48429,0.14421
760.99450,0.13881
759.50471,0.11939
758.01492,0.08442
756.52513,0.07271
755.03534,0.07328
753.54556,0.07387
752.05577,0.05763
750.56598,0.04014
749.07619,0.04260
747.58640,0.04750
746.09661,0.05243
744.60683,0.05036
743.11704,0.03223
741.62725,0.02101
740.13746,0.01736
738.64767,0.01372
737.15788,0.00488
735.66809,0.00652
734.17831,0.00921
732.68852,0.01000
731.19873,0.01083
729.70894,0.01231
728.21915,0.00488
726.72936,0.01352
725.23958,0.02372
723.74979,0.01837
722.26000,0.01305
720.77021,0.02306
719.28042,0.01906
717.79063,0.00921
716.30084,0.01049
714.81106,0.01180
713.32127,0.00176
711.83148,0.01996
710.34169,0.02874
708.85190,0.02669
707.36211,0.02466
705.87233,0.03913
704.38254,0.02732
702.89275,0.04541
701.40296,0.04348
699.91317,0.04157
698.42338,0.05693
696.93360,0.07486
695.44381,0.08286
693.95402,0.09394
692.46423,0.10505
690.97444,0.12895
689.48465,0.14139
687.99486,0.16560
686.50508,0.18446
685.01529,0.20336
683.52550,0.21691
682.03571,0.20699
680.54592,0.22468
679.05613,0.23231
677.56635,0.23996
676.07656,0.25644
674.58677,0.24460
673.09698,0.23636
671.60719,0.20810
670.11740,0.17987
668.62761,0.16685
667.13783,0.15743
665.64804,0.14370
664.15825,0.12999
662.66846,0.08693
661.17867,0.08936
659.68888,0.06959
658.19910,0.06236
656.70931,0.05516
655.21952,0.04491
653.72973,0.03929
652.23994,0.04492
650.75015,0.04918
649.26037,0.05345
647.77058,0.04052
646.28079,0.05570
644.79100,0.03260
643.30121,0.03404
641.81142,0.03550
640.32163,0.04516
638.83185,0.01067
637.34206,0.01297
635.85227,0.00891
634.36248,0.00488
632.87269,0.00718
631.38290,0.01436
629.89312,0.02360
628.40333,0.01525
626.91354,0.00692
625.42375,0.02288
623.93396,0.02073
622.44417,0.02690
620.95438,0.03310
619.46460,0.04839
617.97481,0.05425
616.48502,0.06116
614.99523,0.07473
613.50544,0.08833
612.01565,0.12315
610.52587,0.15288
609.03608,0.15761
607.54629,0.18203
606.05650,0.20647
604.56671,0.25060
603.07692,0.28735
601.58714,0.30382
600.09735,0.32032
598.60756,0.34463
597.11777,0.38096
595.62798,0.36625
594.13819,0.35118
592.64840,0.33613
591.15862,0.32787
589.66883,0.27061
588.17904,0.22691
586.68925,0.21183
585.19946,0.19677
583.70967,0.15084
582.21989,0.12281
580.73010,0.09915
579.24031,0.07551
577.75052,0.05138
576.26073,0.04796
574.77094,0.04533
573.28115,0.04592
571.79137,0.04654
570.30158,0.02610
568.81179,0.03583
567.32200,0.04341
565.83221,0.05101
564.34242,0.07435
562.85264,0.09336
561.36285,0.11802
559.87306,0.12343
558.38327,0.12885
556.89348,0.11988
555.40369,0.13340
553.91391,0.13264
552.42412,0.13191
550.93433,0.15852
549.44454,0.16524
547.95475,0.14901
546.46496,0.16101
544.97517,0.17304
543.48539,0.19773
541.99560,0.19972
540.50581,0.23098
539.01602,0.26225
537.52623,0.25436
536.03644,0.31007
534.54666,0.34181
533.05687,0.36297
531.56708,0.38415
530.07729,0.42668
528.58750,0.49707
527.09771,0.51629
525.60792,0.53553
524.11814,0.59884
522.62835,0.65962
521.13856,0.70562
519.64877,0.73147
518.15898,0.75734
516.66919,0.78655
515.17941,0.77570
513.68962,0.78760
512.19983,0.79952
510.71004,0.77725
509.22025,0.71746
507.73046,0.65745
506.24068,0.57805
504.75089,0.49867
503.26110,0.42366
501.77131,0.36425
500.28152,0.32529
498.79173,0.28636
497.30194,0.18821
495.81216,0.15444
494.32237,0.14443
492.83258,0.13445
491.34279,0.11352
489.85300,0.08699
488.36321,0.06355
486.87343,0.05980
485.38364,0.05607
483.89385,0.08198
482.40406,0.09158
480.91427,0.08550
479.42448,0.07944
477.93469,0.10699
476.44491,0.10238
474.95512,0.11542
473.46533,0.12848
471.97554,0.13774
470.48575,0.16107
468.99596,0.15914
467.50618,0.15148
466.01639,0.14386
464.52660,0.12131
463.03681,0.09497
461.54702,0.08894
460.05723,0.08294
458.56745,0.06331
457.07766,0.03220
455.58787,0.03100
454.09808,0.02982
452.60829,0.04016
451.11850,0.02371
449.62871,0.02452
448.13893,0.02535
446.64914,0.01945
445.15935,0.00488
443.66956,0.00946
442.17977,0.01687
440.68998,0.02430
439.20020,0.01363
437.71041,0.04205
436.22062,0.04458
434.73083,0.04713
433.24104,0.04294
431.75125,0.04388
430.26146,0.05174
428.77168,0.05963
427.28189,0.06830
425.79210,0.05019
424.30231,0.04385
422.81252,0.03753
421.32273,0.03327
419.83295,0.03185
418.34316,0.03416
416.85337,0.03649
415.36358,0.04153
413.87379,0.05323
412.38400,0.04951
410.89422,0.04581
409.40443,0.05554
407.91464,0.05253
406.42485,0.04928
404.93506,0.04913
403.44527,0.04900
401.95548,0.04046
400.46570,0.03093
398.97591,0.03215
397.48612,0.03339
395.99633,0.03543
394.50654,0.05102
393.01675,0.04531
391.52697,0.03963
390.03718,0.03558
388.54739,0.03182
387.05760,0.03472
385.56781,0.03764
384.07802,0.05004
382.58824,0.02058
381.09845,0.01503
379.60866,0.00949
378.11887,0.00488
376.62908,0.02748
375.13929,0.02215
373.64950,0.01684
372.15972,0.04156
370.66993,0.04562
369.18014,0.04138
367.69035,0.03717
366.20056,0.03106
364.71077,0.02727
363.22099,0.03296
361.73120,0.03868
360.24141,0.03343
358.75162,0.01749
357.26183,0.01765
355.77204,0.01784
354.28225,0.02700
352.79247,0.03081
351.30268,0.04550
349.81289,0.06022
348.32310,0.07917
346.83331,0.10173
345.34352,0.08843
343.85374,0.07515
342.36395,0.05258
340.87416,0.02339
339.38437,0.01651
337.89458,0.00966
336.40479,0.00488
334.91501,0.02714
333.42522,0.02542
331.93543,0.02373
330.44564,0.01364
328.95585,0.02936
327.46606,0.02965
325.97627,0.02997
324.48649,0.04781
322.99670,0.05086
321.50691,0.03542
320.01712,0.02000
318.52733,0.02746
317.03754,0.02601
315.54776,0.04425
314.05797,0.06251
312.56818,0.10480
311.07839,0.11647
309.58860,0.10633
308.09881,0.09622
306.60902,0.09136
305.11924,0.06125
303.62945,0.05746
302.13966,0.05370
300.64987,0.03515
299.16008,0.00488
