1778.52000,0.01378
1777.03021,0.01150
1775.54042,0.00902
1774.05063,0.00563
1772.56085,0.00342
1771.07106,0.01030
1769.58127,0.01047
1768.09148,0.01182
1766.60169,0.00808
1765.11190,0.00577
1763.62212,0.01044
1762.13233,0.01026
1760.64254,0.01220
1759.15275,0.01764
1757.66296,0.01405
1756.17317,0.01442
1754.68339,0.00577
1753.19360,0.01519
1751.70381,0.01651
1750.21402,0.01088
1748.72423,0.01085
1747.23444,0.01318
1745.74465,0.01809
1744.25487,0.01419
1742.76508,0.01660
1741.27529,0.02134
1739.78550,0.01636
1738.29571,0.02069
1736.80592,0.01831
1735.31614,0.02571
1733.82635,0.01106
1732.33656,0.01664
1730.84677,0.01319
1729.35698,0.01627
1727.86719,0.00381
1726.37740,0.01484
1724.88762,0.00428
1723.39783,0.00912
1721.90804,0.01399
1720.41825,0.01447
1718.92846,0.00986
1717.43867,0.01504
1715.94889,0.01861
1714.45910,0.01848
1712.96931,0.00978
1711.47952,0.01180
1709.98973,0.01058
1708.49994,0.01613
1707.01016,0.01334
1705.52037,0.01057
1704.03058,0.01270
1702.54079,0.01253
1701.05100,0.00984
1699.56121,0.00577
1698.07142,0.02315
1696.58164,0.02033
1695.09185,0.02150
1693.60206,0.02361
1692.11227,0.02064
1690.62248,0.01816
1689.13269,0.03057
1687.64291,0.01280
1686.15312,0.02456
1684.66333,0.00869
1683.17354,0.02189
1681.68375,0.02652
1680.19396,0.02281
1678.70417,0.02284
1677.21439,0.02475
1675.72460,0.02366
1674.23481,0.02934
1672.74502,0.03458
1671.25523,0.03519
1669.76544,0.04372
1668.27566,0.05089
1666.78587,0.04600
1665.29608,0.05135
1663.80629,0.04116
1662.31650,0.05167
1660.82671,0.05826
1659.33693,0.06836
1657.84714,0.05176
1656.35735,0.05028
1654.86756,0.05092
1653.37777,0.06065
1651.88798,0.05808
1650.39819,0.06739
1648.90841,0.06301
1647.41862,0.07051
1645.92883,0.06792
1644.43904,0.06536
1642.94925,0.08106
1641.45946,0.07657
1639.96968,0.09185
1638.47989,0.06511
1636.99010,0.07277
1635.50031,0.08046
1634.01052,0.07120
1632.52073,0.07499
1631.03094,0.08089
1629.54116,0.09308
1628.05137,0.09461
1626.56158,0.08386
1625.07179,0.07359
1623.58200,0.05823
1622.09221,0.05939
1620.60243,0.07405
1619.11264,0.08409
1617.62285,0.08695
1616.13306,0.09029
1614.64327,0.08553
1613.15348,0.08963
1611.66370,0.08979
1610.17391,0.09207
1608.68412,0.09019
1607.19433,0.08393
1605.70454,0.08604
1604.21475,0.08644
1602.72496,0.08687
1601.23518,0.07512
1599.74539,0.07129
1598.25560,0.08120
1596.76581,0.08718
1595.27602,0.08551
1593.78623,0.10083
1592.29645,0.08690
1590.80666,0.07531
1589.31687,0.06701
1587.82708,0.06802
1586.33729,0.08206
1584.84750,0.09171
1583.35771,0.09489
1581.86793,0.08925
1580.37814,0.08457
1578.88835,0.06946
1577.39856,0.07087
1575.90877,0.07044
1574.41898,0.07073
1572.92920,0.05107
1571.43941,0.05397
1569.94962,0.06072
1568.45983,0.06750
1566.97004,0.05443
1565.48025,0.04697
1563.99047,0.03883
1562.50068,0.02746
1561.01089,0.03308
1559.52110,0.02687
1558.03131,0.03649
1556.54152,0.02824
1555.05173,0.02559
1553.56195,0.00577
1552.07216,0.01677
1550.58237,0.01804
1549.09258,0.01864
1547.60279,0.02484
1546.11300,0.00875
1544.62322,0.01290
1543.13343,0.01661
1541.64364,0.01012
1540.15385,0.01206
1538.66406,0.01402
1537.17427,0.03006
1535.68448,0.01383
1534.19470,0.01296
1532.70491,0.02257
1531.21512,0.01408
1529.72533,0.00956
1528.23554,0.01343
1526.74575,0.02476
1525.25597,0.02055
1523.76618,0.03564
1522.27639,0.04054
1520.78660,0.03756
1519.29681,0.03925
1517.80702,0.04142
1516.31724,0.04153
1514.82745,0.03911
1513.33766,0.04938
1511.84787,0.05967
1510.35808,0.04500
1508.86829,0.06196
1507.37850,0.04943
1505.88872,0.04692
1504.39893,0.06488
1502.90914,0.04824
1501.41935,0.06555
1499.92956,0.06545
1498.43977,0.07584
1496.94999,0.09531
1495.46020,0.08321
1493.97041,0.09134
1492.48062,0.10623
1490.99083,0.10884
1489.50104,0.11356
1488.01125,0.12132
1486.52147,0.12911
1485.03168,0.13831
1483.54189,0.14266
1482.05210,0.15261
1480.56231,0.19209
1479.07252,0.19953
1477.58274,0.21373
1476.09295,0.20751
1474.60316,0.19434
1473.11337,0.20908
1471.62358,0.21943
1470.13379,0.20796
1468.64401,0.20929
1467.15422,0.23713
1465.66443,0.24990
1464.17464,0.26269
1462.68485,0.27178
1461.19506,0.32435
1459.70527,0.36439
1458.21549,0.43606
1456.72570,0.46430
1455.23591,0.52857
1453.74612,0.57940
1452.25633,0.63071
1450.76654,0.67438
1449.27676,0.66743
1447.78697,0.67560
1446.29718,0.65429
1444.80739,0.65251
1443.31760,0.65076
1441.82781,0.60606
1440.33802,0.54093
1438.84824,0.49929
1437.35845,0.50623
1435.86866,0.50948
1434.37887,0.53087
1432.88908,0.55647
1431.39929,0.60835
1429.90951,0.64491
1428.41972,0.71752
1426.92993,0.77830
1425.44014,0.82283
1423.95035,0.85055
1422.46056,0.87829
1420.97078,0.92778
1419.48099,0.96103
1417.99120,0.97525
1416.50141,0.97508
1415.01162,0.95775
1413.52183,0.90165
1412.03204,0.86949
1410.54226,0.81088
1409.05247,0.70071
1407.56268,0.65887
1406.07289,0.57825
1404.58310,0.56271
1403.09331,0.54720
1401.60353,0.47153
1400.11374,0.41239
1398.62395,0.36511
1397.13416,0.32460
1395.64437,0.27598
1394.15458,0.24388
1392.66479,0.19507
1391.17501,0.19485
1389.68522,0.16422
1388.19543,0.12733
1386.70564,0.12009
1385.21585,0.11288
1383.72606,0.08141
1382.23628,0.05670
1380.74649,0.04340
1379.25670,0.03012
1377.76691,0.03755
1376.27712,0.02385
1374.78733,0.00577
1373.29755,0.01309
1371.80776,0.01718
1370.31797,0.03105
1368.82818,0.02915
1367.33839,0.02727
1365.84860,0.03238
1364.35881,0.03682
1362.86903,0.04686
1361.37924,0.05763
1359.88945,0.07166
1358.39966,0.11756
1356.90987,0.15395
1355.42008,0.18920
1353.93030,0.27489
1352.44051,0.29846
1350.95072,0.32205
1349.46093,0.41315
1347.97114,0.49546
1346.48135,0.55757
1344.99156,0.64015
1343.50178,0.68582
1342.01199,0.75915
1340.52220,0.77838
1339.03241,0.85455
1337.54262,0.88404
1336.05283,0.91403
1334.56305,0.94403
1333.07326,0.98801
1331.58347,1.00877
1330.09368,1.00864
1328.60389,0.96370
1327.11410,0.89415
1325.62432,0.91687
1324.13453,0.88686
1322.64474,0.84643
1321.15495,0.82136
1319.66516,0.78225
1318.17537,0.74316
1316.68558,0.67750
1315.19580,0.63393
1313.70601,0.58342
1312.21622,0.55686
1310.72643,0.50616
1309.23664,0.46710
1307.74685,0.43318
1306.25707,0.38952
1304.76728,0.37632
1303.27749,0.36314
1301.78770,0.31584
1300.29791,0.28552
1298.80812,0.26568
1297.31834,0.20265
1295.82855,0.18425
1294.33876,0.14682
1292.84897,0.12289
1291.35918,0.09132
1289.86939,0.08207
1288.37960,0.07285
1286.88982,0.08364
1285.40003,0.08213
1283.91024,0.09506
1282.42045,0.07548
1280.93066,0.08287
1279.44087,0.06566
1277.95109,0.05707
1276.46130,0.02829
1274.97151,0.03009
1273.48172,0.03191
1271.99193,0.02783
1270.50214,0.02679
1269.01235,0.02531
1267.52257,0.03385
1266.03278,0.03800
1264.54299,0.02567
1263.05320,0.01755
1261.56341,0.01073
1260.07362,0.00393
1258.58384,0.02702
1257.09405,0.00505
1255.60426,0.00960
1254.11447,0.00464
1252.62468,0.00518
1251.13489,0.02014
1249.64511,0.01654
1248.15532,0.00577
1246.66553,0.00906
1245.17574,0.01237
1243.68595,0.02012
1242.19616,0.02255
1240.70637,0.01757
1239.21659,0.00843
1237.72680,0.01581
1236.23701,0.02554
1234.74722,0.02554
1233.25743,0.01800
1231.76764,0.01049
1230.27786,0.01381
1228.78807,0.00577
1227.29828,0.01055
1225.80849,0.02186
1224.31870,0.02576
1222.82891,0.02574
1221.33912,0.02853
1219.84934,0.03145
1218.35955,0.03440
1216.86976,0.04075
1215.37997,0.05153
1213.89018,0.06605
1212.40039,0.06178
1210.91061,0.06473
1209.42082,0.05516
1207.93103,0.05444
1206.44124,0.05375
1204.95145,0.04983
1203.46166,0.05290
1201.97188,0.04484
1200.48209,0.03960
1198.99230,0.04436
1197.50251,0.04195
1196.01272,0.04747
1194.52293,0.05115
1193.03314,0.05485
1191.54336,0.04789
1190.05357,0.03258
1188.56378,0.02079
1187.07399,0.00577
1185.58420,0.01582
1184.09441,0.01567
1182.60463,0.02205
1181.11484,0.02845
1179.62505,0.00909
1178.13526,0.00648
1176.64547,0.02062
1175.15568,0.01225
1173.66589,0.00577
1172.17611,0.01426
1170.68632,0.01837
1169.19653,0.02250
1167.70674,0.01737
1166.21695,0.03223
1164.72716,0.05316
1163.23738,0.04600
1161.74759,0.04909
1160.25780,0.04942
1158.76801,0.06080
1157.27822,0.07221
1155.78843,0.09421
1154.29865,0.09556
1152.80886,0.10320
1151.31907,0.09623
1149.82928,0.10764
1148.33949,0.13023
1146.84970,0.13274
1145.35991,0.13528
1143.87013,0.14515
1142.38034,0.14808
1140.89055,0.15731
1139.40076,0.17144
1137.91097,0.18513
1136.42118,0.19188
1134.93140,0.20991
1133.44161,0.22797
1131.95182,0.24571
1130.46203,0.25882
1128.97224,0.26893
1127.48245,0.27164
1125.99266,0.24393
1124.50288,0.23808
1123.01309,0.24736
1121.52330,0.25667
1120.03351,0.25740
1118.54372,0.27674
1117.05393,0.27798
1115.56415,0.28018
1114.07436,0.25498
1112.58457,0.24758
1111.09478,0.24021
1109.60499,0.23692
1108.11520,0.25085
1106.62542,0.23786
1105.13563,0.24766
1103.64584,0.23285
1102.15605,0.21946
1100.66626,0.22363
1099.17647,0.22783
1097.68668,0.23821
1096.19690,0.20540
1094.70711,0.19817
1093.21732,0.18539
1091.72753,0.18541
1090.23774,0.18696
1088.74795,0.18854
1087.25817,0.19142
1085.76838,0.17829
1084.27859,0.17169
1082.78880,0.16604
1081.29901,0.17784
1079.80922,0.16946
1078.31943,0.17712
1076.82965,0.18481
1075.33986,0.18440
1073.85007,0.17912
1072.36028,0.18085
1070.87049,0.19281
1069.38070,0.21921
1067.89092,0.23727
1066.40113,0.25535
1064.91134,0.29761
1063.42155,0.36662
1061.93176,0.43682
1060.44197,0.51935
1058.95219,0.58448
1057.46240,0.62454
1055.97261,0.66463
1054.48282,0.71217
1052.99303,0.79133
1051.50324,0.79571
1050.01345,0.81777
1048.52367,0.82475
1047.03388,0.83163
1045.54409,0.83855
1044.05430,0.78821
1042.56451,0.73302
1041.07472,0.69016
1039.58494,0.62363
1038.09515,0.56991
1036.60536,0.54222
1035.11557,0.51457
1033.62578,0.46254
1032.13599,0.40054
1030.64620,0.34577
1029.15642,0.30194
1027.66663,0.27382
1026.17684,0.24573
1024.68705,0.20011
1023.19726,0.18496
1021.70747,0.16007
1020.21769,0.15030
1018.72790,0.11315
1017.23811,0.10715
1015.74832,0.10118
1014.25853,0.10243
1012.76874,0.09789
1011.27896,0.09757
1009.78917,0.08007
1008.29938,0.05214
1006.80959,0.04886
1005.31980,0.04561
1003.83001,0.03053
1002.34022,0.02361
1000.85044,0.02391
999.36065,0.02609
997.87086,0.02958
996.38107,0.03309
994.89128,0.05347
993.40149,0.04669
991.91171,0.06804
990.42192,0.06851
988.93213,0.08991
987.44234,0.08811
985.95255,0.08632
984.46276,0.08178
982.97297,0.09189
981.48319,0.05765
979.99340,0.04527
978.50361,0.05267
977.01382,0.06009
975.52403,0.03175
974.03424,0.02202
972.54446,0.02766
971.05467,0.01310
969.56488,0.00577
968.07509,0.00831
966.58530,0.01087
965.09551,0.00567
963.60573,0.01716
962.11594,0.02031
960.62615,0.02000
959.13636,0.01658
957.64657,0.01318
956.15678,0.01457
954.66699,0.01296
953.17721,0.02833
951.68742,0.03536
950.19763,0.03522
948.70784,0.03510
947.21805,0.06079
945.72826,0.06908
944.23848,0.10458
942.74869,0.09781
941.25890,0.12639
939.76911,0.12571
938.27932,0.12506
936.78953,0.16416
935.29974,0.16890
933.80996,0.18806
932.32017,0.21004
930.83038,0.22438
929.34059,0.23874
927.85080,0.27008
926.36101,0.28844
924.87123,0.30914
923.38144,0.31221
921.89165,0.33912
920.40186,0.36605
918.91207,0.47142
917.42228,0.60260
915.93250,0.75704
914.44271,0.94310
912.95292,1.05216
911.46313,1.16125
909.97334,1.34901
908.48355,1.56328
906.99376,1.75387
905.50398,1.84552
904.01419,1.89792
902.52440,1.95034
901.03461,2.00000
899.54482,1.97534
898.05503,1.85195
896.56525,1.65750
895.07546,1.51952
893.58567,1.38157
892.09588,1.16395
890.60609,0.88735
889.11630,0.63887
887.62651,0.47755
886.13673,0.40501
884.64694,0.33249
883.15715,0.25604
881.66736,0.17822
880.17757,0.12622
878.68778,0.10885
877.19800,0.09151
875.70821,0.06421
874.21842,0.04181
872.72863,0.02686
871.23884,0.01798
869.74905,0.01342
868.25927,0.00889
866.76948,0.02006
865.27969,0.01430
863.78990,0.00577
862.30011,0.02476
860.81032,0.03598
859.32053,0.04724
857.83075,0.05329
856.34096,0.05982
854.85117,0.07289
853.36138,0.07413
851.87159,0.07888
850.38180,0.08366
848.89202,0.09961
847.40223,0.11163
845.91244,0.14459
844.42265,0.14446
842.93286,0.14436
841.44307,0.16809
839.95329,0.15816
838.46350,0.17474
836.97371,0.18763
835.48392,0.18788
833.99413,0.18815
832.50434,0.19576
831.01455,0.17738
829.52477,0.15995
828.03498,0.14672
826.54519,0.13909
825.05540,0.13149
823.56561,0.10881
822.07582,0.10335
820.58604,0.09768
819.09625,0.09760
817.60646,0.09755
816.11667,0.09776
814.62688,0.09009
813.13709,0.07803
811.64730,0.08110
810.15752,0.08919
808.66773,0.09729
807.17794,0.09439
805.68815,0.10034
804.19836,0.09516
802.70857,0.09535
801.21879,0.09556
799.72900,0.09882
798.23921,0.10326
796.74942,0.08147
795.25963,0.09293
793.76984,0.10441
792.28006,0.11382
790.79027,0.09724
789.30048,0.11646
787.81069,0.12827
786.32090,0.15393
784.83111,0.17961
783.34132,0.21356
781.85154,0.22523
780.36175,0.25273
778.87196,0.25689
777.38217,0.26109
775.89238,0.30910
774.40259,0.30393
772.91281,0.30273
771.42302,0.29029
769.93323,0.27787
768.44344,0.25444
766.95365,0.21245
765.46386,0.18186
763.97407,0.15595
762.48429,0.14249
760.99450,0.12905
759.50471,0.10901
758.01492,0.07134
756.52513,0.07622
755.03534,0.06973
753.54556,0.06326
752.05577,0.05705
750.56598,0.02810
749.07619,0.05005
747.58640,0.04217
746.09661,0.03431
744.60683,0.03821
743.11704,0.03145
741.62725,0.02610
740.13746,0.01706
738.64767,0.00805
737.15788,0.02670
735.66809,0.01680
734.17831,0.00577
732.68852,0.00787
731.19873,0.01000
729.70894,0.01681
728.21915,0.00597
726.72936,0.00930
725.23958,0.00778
723.74979,0.00836
722.26000,0.00898
720.77021,0.00496
719.28042,0.00516
717.79063,0.00352
716.30084,0.00651
714.81106,0.00953
713.32127,0.00676
711.83148,0.00703
710.34169,0.02708
708.85190,0.02740
707.36211,0.02775
705.87233,0.04206
704.38254,0.02572
702.89275,0.04449
701.40296,0.05051
699.91317,0.05655
698.42338,0.07260
696.93360,0.06289
695.44381,0.09224
693.95402,0.09663
692.46423,0.10105
690.97444,0.12860
689.48465,0.17221
687.99486,0.17403
686.50508,0.19457
685.01529,0.21514
683.52550,0.22725
682.03571,0.25077
680.54592,0.25688
679.05613,0.25907
677.56635,0.26128
676.07656,0.30465
674.58677,0.27601
673.09698,0.25692
671.60719,0.22774
670.11740,0.19859
668.62761,0.19630
667.13783,0.16011
665.64804,0.15241
664.15825,0.14473
662.66846,0.11767
661.17867,0.09761
659.68888,0.07641
658.19910,0.06604
656.70931,0.05569
655.21952,0.05036
653.72973,0.04598
652.23994,0.06323
650.75015,0.05274
649.26037,0.04228
647.77058,0.05264
646.28079,0.04536
644.79100,0.05018
643.30121,0.05329
641.81142,0.05642
640.32163,0.03344
638.83185,0.05648
637.34206,0.03563
635.85227,0.02747
634.36248,0.01934
632.87269,0.00577
631.38290,0.02559
629.89312,0.02407
628.40333,0.02617
626.91354,0.02829
625.42375,0.03729
623.93396,0.03098
622.44417,0.03492
620.95438,0.03888
619.46460,0.06494
617.97481,0.05988
616.48502,0.07855
614.99523,0.08853
613.50544,0.09854
612.01565,0.13842
610.52587,0.18065
609.03608,0.21408
607.54629,0.23173
606.05650,0.24940
604.56671,0.29521
603.07692,0.34662
601.58714,0.37110
600.09735,0.39561
598.60756,0.43198
597.11777,0.45468
595.62798,0.45323
594.13819,0.44113
592.64840,0.42904
591.15862,0.39932
589.66883,0.33733
588.17904,0.29465
586.68925,0.27093
585.19946,0.24723
583.70967,0.20926
582.21989,0.13995
580.73010,0.12062
579.24031,0.10132
577.75052,0.08366
576.26073,0.06673
574.77094,0.05237
573.28115,0.05407
571.79137,0.05579
570.30158,0.05986
568.81179,0.06535
567.32200,0.07051
565.83221,0.07569
564.34242,0.11192
562.85264,0.10403
561.36285,0.12380
559.87306,0.12990
558.38327,0.13602
556.89348,0.16330
555.40369,0.16970
553.91391,0.16020
552.42412,0.15073
550.93433,0.17555
549.44454,0.18205
547.95475,0.19205
546.46496,0.19824
544.97517,0.20445
543.48539,0.23334
541.99560,0.25482
540.50581,0.27749
539.01602,0.30018
537.52623,0.30244
536.03644,0.36607
534.54666,0.39906
533.05687,0.43613
531.56708,0.47322
530.07729,0.50930
528.58750,0.58396
527.09771,0.61765
525.60792,0.65135
524.11814,0.70053
522.62835,0.76530
521.13856,0.83869
519.64877,0.86192
518.15898,0.88517
516.66919,0.94260
515.17941,0.96846
513.68962,0.98075
512.19983,0.99306
510.71004,0.89143
509.22025,0.81260
507.73046,0.72914
506.24068,0.66685
504.75089,0.60459
503.26110,0.53747
501.77131,0.42785
500.28152,0.36868
498.79173,0.30953
497.30194,0.24110
495.81216,0.19710
494.32237,0.18705
492.83258,0.17701
491.34279,0.13610
489.85300,0.11705
488.36321,0.07782
486.87343,0.07497
485.38364,0.07214
483.89385,0.08478
482.40406,0.09350
480.91427,0.09806
479.42448,0.10265
477.93469,0.10679
476.44491,0.12258
474.95512,0.14024
473.46533,0.15793
471.97554,0.17542
470.48575,0.17015
468.99596,0.15910
467.50618,0.15377
466.01639,0.14846
464.52660,0.12308
463.03681,0.07983
461.54702,0.07064
460.05723,0.06148
458.56745,0.03782
457.07766,0.03579
455.58787,0.03622
454.09808,0.03668
452.60829,0.02938
451.11850,0.03139
449.62871,0.02820
448.13893,0.02504
446.64914,0.00737
445.15935,0.00577
443.66956,0.01706
442.17977,0.02768
440.68998,0.03833
439.20020,0.02437
437.71041,0.04807
436.22062,0.04403
434.73083,0.04002
433.24104,0.03916
431.75125,0.04530
430.26146,0.05205
428.77168,0.05882
427.28189,0.02646
425.79210,0.02526
424.30231,0.02432
422.81252,0.02340
421.32273,0.01762
419.83295,0.01698
418.34316,0.02205
416.85337,0.02715
415.36358,0.01241
413.87379,0.03231
412.38400,0.02865
410.89422,0.02502
409.40443,0.02083
407.91464,0.05453
406.42485,0.03528
404.93506,0.02500
403.44527,0.01475
401.95548,0.03716
400.46570,0.01801
398.97591,0.02153
397.48612,0.02508
395.99633,0.02947
394.50654,0.00832
393.01675,0.01171
391.52697,0.01215
390.03718,0.00577
388.54739,0.02038
387.05760,0.01806
385.56781,0.01577
384.07802,0.02372
382.58824,0.02542
381.09845,0.01658
379.60866,0.00775
378.11887,0.00000
376.62908,0.01079
375.13929,0.01232
373.64950,0.01386
372.15972,0.01497
370.66993,0.04072
369.18014,0.03711
367.69035,0.03353
366.20056,0.01870
364.71077,0.02662
363.22099,0.02713
361.73120,0.02766
360.24141,0.03078
358.75162,0.03066
357.26183,0.02488
355.77204,0.01911
354.28225,0.02534
352.79247,0.02462
351.30268,0.04531
349.81289,0.06601
348.32310,0.06072
346.83331,0.07241
345.34352,0.08052
343.85374,0.08866
342.36395,0.07323
340.87416,0.01718
339.38437,0.01146
337.89458,0.00577
336.40479,0.00810
334.91501,0.01231
333.42522,0.01957
331.93543,0.02685
330.44564,0.02463
328.95585,0.01430
327.46606,0.03304
325.97627,0.05180
324.48649,0.06872
322.99670,0.03642
321.50691,0.03120
320.01712,0.02601
318.52733,0.02607
317.03754,0.05124
315.54776,0.06239
314.05797,0.07355
312.56818,0.09113
311.07839,0.11106
309.58860,0.11870
308.09881,0.12636
306.60902,0.07201
305.11924,0.05764
303.62945,0.04388
302.13966,0.03015
300.64987,0.02143
299.16008,0.00577
