1778.52000,0.01421
1777.03021,0.01669
1775.54042,0.01176
1774.05063,0.01132
1772.56085,0.00743
1771.07106,0.02090
1769.58127,0.01879
1768.09148,0.00978
1766.60169,0.01441
1765.11190,0.01510
1763.62212,0.00715
1762.13233,0.01830
1760.64254,0.01337
1759.15275,0.00425
1757.66296,0.00878
1756.17317,0.01730
1754.68339,0.01123
1753.19360,0.00048
1751.70381,0.01056
1750.21402,0.00952
1748.72423,0.01123
1747.23444,0.01791
1745.74465,0.00852
1744.25487,0.01204
1742.76508,0.00889
1741.27529,0.00948
1739.78550,0.00638
1738.29571,0.00653
1736.80592,0.02577
1735.31614,0.01656
1733.82635,0.01628
1732.33656,0.01851
1730.84677,0.01011
1729.35698,-0.00000
1727.86719,0.01229
1726.37740,0.00553
1724.88762,0.01167
1723.39783,0.00596
1721.90804,0.01141
1720.41825,0.00425
1718.92846,0.00965
1717.43867,0.01012
1715.94889,0.01359
1714.45910,0.01287
1712.96931,0.01490
1711.47952,0.00581
1709.98973,0.00368
1708.49994,0.00653
1707.01016,0.00494
1705.52037,0.00338
1704.03058,0.00110
1702.54079,0.01888
1701.05100,0.01662
1699.56121,0.01265
1698.07142,0.00425
1696.58164,0.02052
1695.09185,0.02145
1693.60206,0.01473
1692.11227,0.01769
1690.62248,0.02167
1689.13269,0.03311
1687.64291,0.03193
1686.15312,0.04292
1684.66333,0.04031
1683.17354,0.03079
1681.68375,0.04086
1680.19396,0.04056
1678.70417,0.03780
1677.21439,0.04200
1675.72460,0.04722
1674.23481,0.05072
1672.74502,0.04707
1671.25523,0.06524
1669.76544,0.07477
1668.27566,0.07094
1666.78587,0.07086
1665.29608,0.06411
1663.80629,0.07696
1662.31650,0.07744
1660.82671,0.08662
1659.33693,0.08740
1657.84714,0.08177
1656.35735,0.07220
1654.86756,0.07182
1653.37777,0.07641
1651.88798,0.07212
1650.39819,0.07552
1648.90841,0.08639
1647.41862,0.07894
1645.92883,0.07648
1644.43904,0.07404
1642.94925,0.07708
1641.45946,0.09351
1639.96968,0.08372
1638.47989,0.08806
1636.99010,0.08327
1635.50031,0.08643
1634.01052,0.07426
1632.52073,0.08712
1631.03094,0.09011
1629.54116,0.06959
1628.05137,0.08352
1626.56158,0.07345
1625.07179,0.07109
1623.58200,0.07097
1622.09221,0.07485
1620.60243,0.08989
1619.11264,0.07970
1617.62285,0.08439
1616.13306,0.07673
1614.64327,0.08766
1613.15348,0.09367
1611.66370,0.08484
1610.17391,0.08792
1608.68412,0.09226
1607.19433,0.09515
1605.70454,0.07874
1604.21475,0.08179
1602.72496,0.08487
1601.23518,0.07622
1599.74539,0.07452
1598.25560,0.09092
1596.76581,0.07912
1595.27602,0.09483
1593.78623,0.08432
1592.29645,0.08670
1590.80666,0.07178
1589.31687,0.07397
1587.82708,0.07073
1586.33729,0.07916
1584.84750,0.08242
1583.35771,0.09114
1581.86793,0.07389
1580.37814,0.07895
1578.88835,0.06175
1577.39856,0.06364
1575.90877,0.04574
1574.41898,0.04471
1572.92920,0.04989
1571.43941,0.04965
1569.94962,0.04709
1568.45983,0.04454
1566.97004,0.03101
1565.48025,0.01848
1563.99047,0.01886
1562.50068,0.02868
1561.01089,0.02688
1559.52110,0.03649
1558.03131,0.03474
1556.54152,0.01246
1555.05173,0.03230
1553.56195,0.03583
1552.07216,0.03021
1550.58237,0.01818
1549.09258,0.00692
1547.60279,0.01327
1546.11300,0.01270
1544.62322,0.01291
1543.13343,0.02106
1541.64364,0.01686
1540.15385,0.01763
1538.66406,0.01843
1537.17427,0.01703
1535.68448,0.00425
1534.19470,0.00555
1532.70491,0.00786
1531.21512,0.00425
1529.72533,0.02946
1528.23554,0.03983
1526.74575,0.02917
1525.25597,0.03984
1523.76618,0.04038
1522.27639,0.04465
1520.78660,0.03633
1519.29681,0.03743
1517.80702,0.03337
1516.31724,0.05087
1514.82745,0.06171
1513.33766,0.06031
1511.84787,0.05894
1510.35808,0.05723
1508.86829,0.06098
1507.37850,0.04743
1505.88872,0.04380
1504.39893,0.05506
1502.90914,0.06387
1501.41935,0.06503
1499.92956,0.06819
1498.43977,0.06766
1496.94999,0.10852
1495.46020,0.10556
1493.97041,0.11476
1492.48062,0.12573
1490.99083,0.14538
1489.50104,0.13187
1488.01125,0.14799
1486.52147,0.16412
1485.03168,0.16679
1483.54189,0.19722
1482.05210,0.19448
1480.56231,0.23115
1479.07252,0.23788
1477.58274,0.26394
1476.09295,0.29722
1474.60316,0.28346
1473.11337,0.30985
1471.62358,0.30333
1470.13379,0.29782
1468.64401,0.32527
1467.15422,0.33987
1465.66443,0.35301
1464.17464,0.36618
1462.68485,0.41008
1461.19506,0.43864
1459.70527,0.47145
1458.21549,0.51988
1456.72570,0.57105
1455.23591,0.64727
1453.74612,0.67869
1452.25633,0.73192
1450.76654,0.79632
1449.27676,0.82310
1447.78697,0.77116
1446.29718,0.73707
1444.80739,0.72715
1443.31760,0.71726
1441.82781,0.65229
1440.33802,0.56753
1438.84824,0.56576
1437.35845,0.52117
1435.86866,0.50830
1434.37887,0.53929
1432.88908,0.58071
1431.39929,0.60309
1429.90951,0.64678
1428.41972,0.74623
1426.92993,0.85783
1425.44014,0.90804
1423.95035,0.92311
1422.46056,0.93820
1420.97078,0.95084
1419.48099,0.95212
1417.99120,0.97273
1416.50141,0.94062
1415.01162,0.88724
1413.52183,0.84032
1412.03204,0.78178
1410.54226,0.72129
1409.05247,0.68411
1407.56268,0.63753
1406.07289,0.55854
1404.58310,0.54285
1403.09331,0.52718
1401.60353,0.46758
1400.11374,0.41147
1398.62395,0.35415
1397.13416,0.32509
1395.64437,0.27549
1394.15458,0.22567
1392.66479,0.19965
1391.17501,0.15979
1389.68522,0.12837
1388.19543,0.09252
1386.70564,0.08257
1385.21585,0.07265
1383.72606,0.04702
1382.23628,0.05288
1380.74649,0.03127
1379.25670,0.02701
1377.76691,0.00793
1376.27712,0.01437
1374.78733,0.00425
1373.29755,0.01897
1371.80776,0.02703
1370.31797,0.02273
1368.82818,0.01474
1367.33839,0.00678
1365.84860,0.03846
1364.35881,0.04442
1362.86903,0.03182
1361.37924,0.05541
1359.88945,0.08447
1358.39966,0.10439
1356.90987,0.14117
1355.42008,0.17724
1353.93030,0.24132
1352.44051,0.28622
1350.95072,0.33116
1349.46093,0.41066
1347.97114,0.44289
1346.48135,0.53854
1344.99156,0.60970
1343.50178,0.68435
1342.01199,0.68745
1340.52220,0.76859
1339.03241,0.81831
1337.54262,0.86804
1336.05283,0.89997
1334.56305,0.93193
1333.07326,0.95598
1331.58347,0.94415
1330.09368,0.93111
1328.60389,0.93840
1327.11410,0.93159
1325.62432,0.91268
1324.13453,0.87621
1322.64474,0.79716
1321.15495,0.73944
1319.66516,0.71208
1318.17537,0.68475
1316.68558,0.67886
1315.19580,0.63709
1313.70601,0.57776
1312.21622,0.53009
1310.72643,0.55204
1309.23664,0.50764
1307.74685,0.45930
1306.25707,0.40282
1304.76728,0.38759
1303.27749,0.37239
1301.78770,0.33976
1300.29791,0.30442
1298.80812,0.26342
1297.31834,0.21922
1295.82855,0.16910
1294.33876,0.15070
1292.84897,0.14050
1291.35918,0.13008
1289.86939,0.12674
1288.37960,0.12343
1286.88982,0.10837
1285.40003,0.11192
1283.91024,0.09221
1282.42045,0.10101
1280.93066,0.07342
1279.44087,0.05775
1277.95109,0.04408
1276.46130,0.03292
1274.97151,0.04097
1273.48172,0.04905
1271.99193,0.04489
1270.50214,0.02763
1269.01235,0.02204
1267.52257,0.04024
1266.03278,0.02083
1264.54299,0.00615
1263.05320,0.00783
1261.56341,0.02131
1260.07362,0.03481
1258.58384,0.03087
1257.09405,0.01829
1255.60426,0.00425
1254.11447,0.01470
1252.62468,0.03755
1251.13489,0.02922
1249.64511,0.01497
1248.15532,0.03418
1246.66553,0.03373
1245.17574,0.03330
1243.68595,0.01791
1242.19616,0.00750
1240.70637,0.03451
1239.21659,0.00385
1237.72680,0.01657
1236.23701,0.01842
1234.74722,0.01758
1233.25743,0.01849
1231.76764,0.01942
1230.27786,0.00874
1228.78807,0.01617
1227.29828,0.01421
1225.80849,0.00633
1224.31870,0.01481
1222.82891,0.00624
1221.33912,0.01750
1219.84934,0.01975
1218.35955,0.02202
1216.86976,0.03039
1215.37997,0.06552
1213.89018,0.05809
1212.40039,0.07643
1210.91061,0.08638
1209.42082,0.06862
1207.93103,0.06772
1206.44124,0.06684
1204.95145,0.05708
1203.46166,0.05947
1201.97188,0.04679
1200.48209,0.06880
1198.99230,0.06136
1197.50251,0.05642
1196.01272,0.05845
1194.52293,0.04749
1193.03314,0.03656
1191.54336,0.02232
1190.05357,0.01329
1188.56378,0.03104
1187.07399,0.02281
1185.58420,0.01510
1184.09441,0.01707
1182.60463,0.01065
1181.11484,0.00425
1179.62505,0.01108
1178.13526,0.02213
1176.64547,0.01241
1175.15568,0.00866
1173.66589,0.02772
1172.17611,0.02649
1170.68632,0.02046
1169.19653,0.01446
1167.70674,0.03460
1166.21695,0.01688
1164.72716,0.02890
1163.23738,0.03303
1161.74759,0.04584
1160.25780,0.06859
1158.76801,0.07514
1157.27822,0.08171
1155.78843,0.08175
1154.29865,0.07512
1152.80886,0.06604
1151.31907,0.10479
1149.82928,0.11483
1148.33949,0.10013
1146.84970,0.10712
1145.35991,0.11414
1143.87013,0.10917
1142.38034,0.13246
1140.89055,0.15603
1139.40076,0.15955
1137.91097,0.15518
1136.42118,0.18327
1134.93140,0.18972
1133.44161,0.19619
1131.95182,0.23303
1130.46203,0.22828
1128.97224,0.22604
1127.48245,0.22109
1125.99266,0.20899
1124.50288,0.24967
1123.01309,0.24529
1121.52330,0.24094
1120.03351,0.24529
1118.54372,0.21969
1117.05393,0.21244
1115.56415,0.22107
1114.07436,0.21610
1112.58457,0.20855
1111.09478,0.20103
1109.60499,0.19490
1108.11520,0.21355
1106.62542,0.23273
1105.13563,0.22939
1103.64584,0.21073
1102.15605,0.20447
1100.66626,0.20480
1099.17647,0.20515
1097.68668,0.20070
1096.19690,0.20494
1094.70711,0.18221
1093.21732,0.18576
1091.72753,0.21261
1090.23774,0.20556
1088.74795,0.19854
1087.25817,0.18509
1085.76838,0.18753
1084.27859,0.19940
1082.78880,0.19296
1081.29901,0.19200
1079.80922,0.19181
1078.31943,0.19870
1076.82965,0.20562
1075.33986,0.24611
1073.85007,0.23760
1072.36028,0.25809
1070.87049,0.27587
1069.38070,0.29566
1067.89092,0.31944
1066.40113,0.34325
1064.91134,0.38639
1063.42155,0.46250
1061.93176,0.55869
1060.44197,0.66086
1058.95219,0.77592
1057.46240,0.82996
1055.97261,0.88403
1054.48282,0.97514
1052.99303,1.04350
1051.50324,1.06631
1050.01345,1.04829
1048.52367,1.00329
1047.03388,1.00215
1045.54409,1.00104
1044.05430,0.96776
1042.56451,0.91494
1041.07472,0.81460
1039.58494,0.73929
1038.09515,0.64815
1036.60536,0.61871
1035.11557,0.58929
1033.62578,0.49848
1032.13599,0.43246
1030.64620,0.37885
1029.15642,0.30123
1027.66663,0.27627
1026.17684,0.25134
1024.68705,0.23819
1023.19726,0.20723
1021.70747,0.18547
1020.21769,0.17041
1018.72790,0.15513
1017.23811,0.15548
1015.74832,0.15585
1014.25853,0.13619
1012.76874,0.13810
1011.27896,0.10412
1009.78917,0.10756
1008.29938,0.08825
1006.80959,0.08208
1005.31980,0.07594
1003.83001,0.04877
1002.34022,0.04243
1000.85044,0.02398
999.36065,0.03478
997.87086,0.04016
996.38107,0.04555
994.89128,0.07153
993.40149,0.09333
991.91171,0.10202
990.42192,0.12559
988.93213,0.14944
987.44234,0.15177
985.95255,0.15412
984.46276,0.13446
982.97297,0.12769
981.48319,0.10981
979.99340,0.07264
978.50361,0.07004
977.01382,0.06746
975.52403,0.02689
974.03424,0.03464
972.54446,0.02682
971.05467,0.02099
969.56488,0.01643
968.07509,0.01413
966.58530,0.01185
965.09551,0.02495
963.60573,0.03188
962.11594,0.01432
960.62615,0.01981
959.13636,0.01456
957.64657,0.00933
956.15678,0.00425
954.66699,0.01583
953.17721,0.04476
951.68742,0.04673
950.19763,0.04637
948.70784,0.04603
947.21805,0.05649
945.72826,0.07267
944.23848,0.09730
942.74869,0.09842
941.25890,0.09957
939.76911,0.11052
938.27932,0.12150
936.78953,0.15541
935.29974,0.18068
933.80996,0.19483
932.32017,0.21569
930.83038,0.22766
929.34059,0.23966
927.85080,0.23583
926.36101,0.25827
924.87123,0.29015
923.38144,0.30868
921.89165,0.34928
920.40186,0.38990
918.91207,0.49841
917.42228,0.61957
915.93250,0.76700
914.44271,0.95037
912.95292,1.08522
911.46313,1.22010
909.97334,1.42311
908.48355,1.60434
906.99376,1.78833
905.50398,1.88245
904.01419,1.92532
902.52440,1.96822
901.03461,2.00000
899.54482,1.94488
898.05503,1.79518
896.56525,1.58582
895.07546,1.45189
893.58567,1.31799
892.09588,1.09435
890.60609,0.87889
889.11630,0.65752
887.62651,0.48373
886.13673,0.41335
884.64694,0.34299
883.15715,0.24530
881.66736,0.18602
880.17757,0.12057
878.68778,0.10232
877.19800,0.08410
875.70821,0.05314
874.21842,0.05367
872.72863,0.04382
871.23884,0.03622
869.74905,0.03768
868.25927,0.03917
866.76948,0.01753
865.27969,0.01573
863.78990,0.03822
862.30011,0.04562
860.81032,0.05764
859.32053,0.06968
857.83075,0.08063
856.34096,0.09532
854.85117,0.11746
853.36138,0.12080
851.87159,0.13160
850.38180,0.14243
848.89202,0.16913
847.40223,0.18718
845.91244,0.19561
844.42265,0.20294
842.93286,0.21030
841.44307,0.22944
839.95329,0.25654
838.46350,0.25988
836.97371,0.28727
835.48392,0.29153
833.99413,0.29582
832.50434,0.29580
831.01455,0.26930
829.52477,0.25149
828.03498,0.20796
826.54519,0.19899
825.05540,0.19005
823.56561,0.18522
822.07582,0.15962
820.58604,0.15583
819.09625,0.14550
817.60646,0.13520
816.11667,0.13173
814.62688,0.12730
813.13709,0.12710
811.64730,0.14600
810.15752,0.14188
808.66773,0.13780
807.17794,0.14711
805.68815,0.13886
804.19836,0.15565
802.70857,0.15154
801.21879,0.14745
799.72900,0.14500
798.23921,0.13440
796.74942,0.14017
795.25963,0.14311
793.76984,0.14608
792.28006,0.14301
790.79027,0.16101
789.30048,0.17755
787.81069,0.20824
786.32090,0.22916
784.83111,0.25011
783.34132,0.28706
781.85154,0.32675
780.36175,0.37118
778.87196,0.38566
777.38217,0.40017
775.89238,0.43105
774.40259,0.48202
772.91281,0.45797
771.42302,0.42800
769.93323,0.39805
768.44344,0.36293
766.95365,0.31496
765.46386,0.25859
763.97407,0.23221
762.48429,0.20710
760.99450,0.18201
759.50471,0.15595
758.01492,0.13487
756.52513,0.12199
755.03534,0.11111
753.54556,0.10026
752.05577,0.07977
750.56598,0.08284
749.07619,0.06810
747.58640,0.06317
746.09661,0.05826
744.60683,0.04434
743.11704,0.03118
741.62725,0.00913
740.13746,0.00891
738.64767,0.00870
737.15788,0.01174
735.66809,0.01406
734.17831,0.01022
732.68852,0.01160
731.19873,0.01301
729.70894,0.00998
728.21915,0.00425
726.72936,0.00726
725.23958,0.01499
723.74979,0.01582
722.26000,0.01667
720.77021,0.00218
719.28042,0.01637
717.79063,0.00582
716.30084,0.01052
714.81106,0.01525
713.32127,0.01864
711.83148,0.01041
710.34169,0.02178
708.85190,0.02177
707.36211,0.02179
705.87233,0.04091
704.38254,0.04444
702.89275,0.04355
701.40296,0.04577
699.91317,0.04802
698.42338,0.06206
696.93360,0.08776
695.44381,0.09417
693.95402,0.09157
692.46423,0.08899
690.97444,0.11578
689.48465,0.12649
687.99486,0.16398
686.50508,0.17091
685.01529,0.17787
683.52550,0.22013
682.03571,0.22206
680.54592,0.23367
679.05613,0.24369
677.56635,0.25374
676.07656,0.26964
674.58677,0.22587
673.09698,0.20788
671.60719,0.20441
670.11740,0.20096
668.62761,0.18379
667.13783,0.14560
665.64804,0.13232
664.15825,0.11906
662.66846,0.10050
661.17867,0.07727
659.68888,0.04687
658.19910,0.04461
656.70931,0.04238
655.21952,0.03013
653.72973,0.04293
652.23994,0.05625
650.75015,0.04928
649.26037,0.04234
647.77058,0.05028
646.28079,0.03422
644.79100,0.03924
643.30121,0.03747
641.81142,0.03573
640.32163,0.00591
638.83185,0.01424
637.34206,0.01765
635.85227,0.01353
634.36248,0.00944
632.87269,0.00425
631.38290,0.02241
629.89312,0.02177
628.40333,0.01522
626.91354,0.00868
625.42375,0.01555
623.93396,0.00609
622.44417,0.01053
620.95438,0.01499
619.46460,0.02567
617.97481,0.03043
616.48502,0.04587
614.99523,0.06529
613.50544,0.08473
612.01565,0.14333
610.52587,0.16134
609.03608,0.18135
607.54629,0.18851
606.05650,0.19570
604.56671,0.24229
603.07692,0.29038
601.58714,0.30928
600.09735,0.32821
598.60756,0.36573
597.11777,0.39387
595.62798,0.39305
594.13819,0.38261
592.64840,0.37218
591.15862,0.33033
589.66883,0.29767
588.17904,0.28732
586.68925,0.25347
585.19946,0.21964
583.70967,0.16875
582.21989,0.11095
580.73010,0.09528
579.24031,0.07963
577.75052,0.06499
576.26073,0.03627
574.77094,0.02986
573.28115,0.02433
571.79137,0.01884
570.30158,0.06079
568.81179,0.06215
567.32200,0.08286
565.83221,0.10359
564.34242,0.10404
562.85264,0.12902
561.36285,0.15825
559.87306,0.16756
558.38327,0.17690
556.89348,0.15567
555.40369,0.20060
553.91391,0.20184
552.42412,0.20310
550.93433,0.21169
549.44454,0.17772
547.95475,0.18042
546.46496,0.19379
544.97517,0.20719
543.48539,0.22928
541.99560,0.28037
540.50581,0.29817
539.01602,0.31600
537.52623,0.35949
536.03644,0.38566
534.54666,0.40765
533.05687,0.42249
531.56708,0.43735
530.07729,0.49903
528.58750,0.51023
527.09771,0.54695
525.60792,0.58370
524.11814,0.64772
522.62835,0.70631
521.13856,0.75997
519.64877,0.78382
518.15898,0.80769
516.66919,0.84657
515.17941,0.87458
513.68962,0.87141
512.19983,0.86826
510.71004,0.80842
509.22025,0.76446
507.73046,0.69601
506.24068,0.64590
504.75089,0.59582
503.26110,0.48757
501.77131,0.38207
500.28152,0.33590
498.79173,0.28976
497.30194,0.24649
495.81216,0.22182
494.32237,0.18554
492.83258,0.14928
491.34279,0.11057
489.85300,0.08798
488.36321,0.06838
486.87343,0.06417
485.38364,0.05998
483.89385,0.10485
482.40406,0.11656
480.91427,0.12804
479.42448,0.13955
477.93469,0.16521
476.44491,0.18494
474.95512,0.19528
473.46533,0.20566
471.97554,0.22398
470.48575,0.22598
468.99596,0.22974
467.50618,0.22473
466.01639,0.21974
464.52660,0.17801
463.03681,0.12193
461.54702,0.11393
460.05723,0.10595
458.56745,0.07793
457.07766,0.07198
455.58787,0.05825
454.09808,0.04455
452.60829,0.00425
451.11850,0.02371
449.62871,0.01794
448.13893,0.01218
446.64914,0.03345
445.15935,0.01710
443.66956,0.02678
442.17977,0.03078
440.68998,0.03481
439.20020,0.02599
437.71041,0.03205
436.22062,0.03294
434.73083,0.03385
433.24104,0.04543
431.75125,0.06050
430.26146,0.05876
428.77168,0.05705
427.28189,0.03554
425.79210,0.04775
424.30231,0.03607
422.81252,0.02443
421.32273,0.05255
419.83295,0.03489
418.34316,0.02752
416.85337,0.02018
415.36358,0.02315
413.87379,0.02812
412.38400,0.03522
410.89422,0.04234
409.40443,0.02708
407.91464,0.03165
406.42485,0.03600
404.93506,0.03493
403.44527,0.03388
401.95548,0.01774
400.46570,0.02442
398.97591,0.02506
397.48612,0.02572
395.99633,0.01885
394.50654,0.01225
393.01675,0.01472
391.52697,0.01721
390.03718,0.00870
388.54739,0.02127
387.05760,0.01354
385.56781,0.00585
384.07802,0.02441
382.58824,0.00485
381.09845,0.00377
379.60866,0.00272
378.11887,0.01513
376.62908,0.00279
375.13929,0.01191
373.64950,0.02104
372.15972,0.02340
370.66993,0.01141
369.18014,0.01856
367.69035,0.02574
366.20056,0.05041
364.71077,0.04142
363.22099,0.03542
361.73120,0.02945
360.24141,0.01905
358.75162,0.01783
357.26183,0.02258
355.77204,0.02736
354.28225,0.03241
352.79247,0.06671
351.30268,0.07540
349.81289,0.08411
348.32310,0.07836
346.83331,0.06100
345.34352,0.05282
343.85374,0.04467
342.36395,0.04224
340.87416,0.03686
339.38437,0.03560
337.89458,0.03435
336.40479,0.03103
334.91501,0.03913
333.42522,0.02248
331.93543,0.00586
330.44564,0.00425
328.95585,0.04724
327.46606,0.03825
325.97627,0.02929
324.48649,0.02059
322.99670,0.00895
321.50691,0.02280
320.01712,0.03668
318.52733,0.02446
317.03754,0.03801
315.54776,0.05481
314.05797,0.07164
312.56818,0.10285
311.07839,0.11329
309.58860,0.09898
308.09881,0.08470
306.60902,0.06104
305.11924,0.06860
303.62945,0.03656
302.13966,0.00455
300.64987,0.01058
299.16008,0.00425
