1778.52000,0.00784
1777.03021,0.01594
1775.54042,0.00000
1774.05063,0.01229
1772.56085,0.02046
1771.07106,0.00719
1769.58127,0.01463
1768.09148,0.01175
1766.60169,0.00864
1765.11190,0.01331
1763.62212,0.01827
1762.13233,0.01419
1760.64254,0.00988
1759.15275,0.01543
1757.66296,0.02178
1756.17317,0.01392
1754.68339,0.02083
1753.19360,0.00913
1751.70381,0.01786
1750.21402,0.02247
1748.72423,0.02012
1747.23444,0.01754
1745.74465,0.01679
1744.25487,0.01658
1742.76508,0.02390
1741.27529,0.01779
1739.78550,0.01688
1738.29571,0.01987
1736.80592,0.02082
1735.31614,0.01869
1733.82635,0.02046
1732.33656,0.00906
1730.84677,0.00571
1729.35698,0.02083
1727.86719,0.02227
1726.37740,0.02709
1724.88762,0.02081
1723.39783,0.02465
1721.90804,0.01687
1720.41825,0.00988
1718.92846,0.01277
1717.43867,0.02008
1715.94889,0.03310
1714.45910,0.01821
1712.96931,0.01369
1711.47952,0.01050
1709.98973,0.01743
1708.49994,0.01611
1707.01016,0.01545
1705.52037,0.01482
1704.03058,0.01175
1702.54079,0.02534
1701.05100,0.02833
1699.56121,0.02592
1698.07142,0.02302
1696.58164,0.03255
1695.09185,0.02996
1693.60206,0.02971
1692.11227,0.03441
1690.62248,0.03654
1689.13269,0.05448
1687.64291,0.03803
1686.15312,0.03532
1684.66333,0.03677
1683.17354,0.05196
1681.68375,0.05579
1680.19396,0.05343
1678.70417,0.03583
1677.21439,0.05474
1675.72460,0.05013
1674.23481,0.04399
1672.74502,0.06297
1671.25523,0.06878
1669.76544,0.07125
1668.27566,0.06572
1666.78587,0.06850
1665.29608,0.06846
1663.80629,0.07465
1662.31650,0.08500
1660.82671,0.08348
1659.33693,0.09000
1657.84714,0.09137
1656.35735,0.09612
1654.86756,0.10168
1653.37777,0.09019
1651.88798,0.08907
1650.39819,0.09315
1648.90841,0.09156
1647.41862,0.09284
1645.92883,0.08871
1644.43904,0.08460
1642.94925,0.09915
1641.45946,0.08734
1639.96968,0.07994
1638.47989,0.07930
1636.99010,0.08359
1635.50031,0.08895
1634.01052,0.08087
1632.52073,0.08447
1631.03094,0.07359
1629.54116,0.07335
1628.05137,0.09151
1626.56158,0.10606
1625.07179,0.10253
1623.58200,0.10032
1622.09221,0.09658
1620.60243,0.10864
1619.11264,0.10159
1617.62285,0.10490
1616.13306,0.11031
1614.64327,0.10643
1613.15348,0.11086
1611.66370,0.11272
1610.17391,0.10037
1608.68412,0.09064
1607.19433,0.10137
1605.70454,0.09660
1604.21475,0.09043
1602.72496,0.08429
1601.23518,0.09926
1599.74539,0.09122
1598.25560,0.09718
1596.76581,0.09411
1595.27602,0.08537
1593.78623,0.09968
1592.29645,0.08918
1590.80666,0.08698
1589.31687,0.08714
1587.82708,0.08369
1586.33729,0.10770
1584.84750,0.09473
1583.35771,0.07221
1581.86793,0.08879
1580.37814,0.08236
1578.88835,0.06483
1577.39856,0.08018
1575.90877,0.06710
1574.41898,0.07241
1572.92920,0.06223
1571.43941,0.05646
1569.94962,0.05473
1568.45983,0.05302
1566.97004,0.04035
1565.48025,0.04606
1563.99047,0.04689
1562.50068,0.04670
1561.01089,0.06025
1559.52110,0.04691
1558.03131,0.04835
1556.54152,0.04386
1555.05173,0.04173
1553.56195,0.04402
1552.07216,0.03675
1550.58237,0.01425
1549.09258,0.01739
1547.60279,0.03271
1546.11300,0.03770
1544.62322,0.03186
1543.13343,0.02500
1541.64364,0.00988
1540.15385,0.01189
1538.66406,0.01392
1537.17427,0.01338
1535.68448,0.02193
1534.19470,0.02455
1532.70491,0.02900
1531.21512,0.03865
1529.72533,0.04600
1528.23554,0.03733
1526.74575,0.04447
1525.25597,0.03689
1523.76618,0.03502
1522.27639,0.03007
1520.78660,0.03549
1519.29681,0.05620
1517.80702,0.04977
1516.31724,0.05346
1514.82745,0.05691
1513.33766,0.05262
1511.84787,0.04836
1510.35808,0.04619
1508.86829,0.04405
1507.37850,0.05771
1505.88872,0.06208
1504.39893,0.05742
1502.90914,0.05667
1501.41935,0.07663
1499.92956,0.08110
1498.43977,0.08534
1496.94999,0.08520
1495.46020,0.07396
1493.97041,0.08551
1492.48062,0.10588
1490.99083,0.09782
1489.50104,0.11617
1488.01125,0.12096
1486.52147,0.12577
1485.03168,0.15325
1483.54189,0.16135
1482.05210,0.18966
1480.56231,0.18254
1479.07252,0.20028
1477.58274,0.21624
1476.09295,0.22446
1474.60316,0.23348
1473.11337,0.23786
1471.62358,0.26478
1470.13379,0.26896
1468.64401,0.27420
1467.15422,0.27739
1465.66443,0.28655
1464.17464,0.29574
1462.68485,0.31375
1461.19506,0.34653
1459.70527,0.38555
1458.21549,0.44166
1456.72570,0.50194
1455.23591,0.57363
1453.74612,0.63862
1452.25633,0.67957
1450.76654,0.71951
1449.27676,0.72454
1447.78697,0.69001
1446.29718,0.65395
1444.80739,0.64689
1443.31760,0.63986
1441.82781,0.60414
1440.33802,0.55368
1438.84824,0.52784
1437.35845,0.51055
1435.86866,0.48890
1434.37887,0.48175
1432.88908,0.51836
1431.39929,0.57879
1429.90951,0.62967
1428.41972,0.74397
1426.92993,0.78171
1425.44014,0.82309
1423.95035,0.84768
1422.46056,0.87230
1420.97078,0.91375
1419.48099,0.93945
1417.99120,0.95198
1416.50141,0.92623
1415.01162,0.89275
1413.52183,0.89034
1412.03204,0.83233
1410.54226,0.75494
1409.05247,0.68378
1407.56268,0.64085
1406.07289,0.57284
1404.58310,0.55066
1403.09331,0.52850
1401.60353,0.46367
1400.11374,0.41879
1398.62395,0.36151
1397.13416,0.32444
1395.64437,0.27187
1394.15458,0.24752
1392.66479,0.19060
1391.17501,0.14561
1389.68522,0.13556
1388.19543,0.10744
1386.70564,0.09408
1385.21585,0.08075
1383.72606,0.07028
1382.23628,0.05079
1380.74649,0.03468
1379.25670,0.02585
1377.76691,0.01962
1376.27712,0.02092
1374.78733,0.02380
1373.29755,0.00988
1371.80776,0.01769
1370.31797,0.02992
1368.82818,0.02730
1367.33839,0.02470
1365.84860,0.05201
1364.35881,0.04519
1362.86903,0.08083
1361.37924,0.08337
1359.88945,0.08646
1358.39966,0.10276
1356.90987,0.12219
1355.42008,0.18253
1353.93030,0.24134
1352.44051,0.28219
1350.95072,0.32307
1349.46093,0.37341
1347.97114,0.43310
1346.48135,0.48142
1344.99156,0.57737
1343.50178,0.63221
1342.01199,0.73468
1340.52220,0.83071
1339.03241,0.85949
1337.54262,0.92633
1336.05283,0.93484
1334.56305,0.94339
1333.07326,0.92828
1331.58347,0.91268
1330.09368,0.94962
1328.60389,0.95632
1327.11410,0.92630
1325.62432,0.90329
1324.13453,0.85469
1322.64474,0.80793
1321.15495,0.78474
1319.66516,0.75587
1318.17537,0.72703
1316.68558,0.64389
1315.19580,0.62260
1313.70601,0.62721
1312.21622,0.56173
1310.72643,0.54284
1309.23664,0.48103
1307.74685,0.43011
1306.25707,0.40095
1304.76728,0.37880
1303.27749,0.35667
1301.78770,0.30973
1300.29791,0.28118
1298.80812,0.24308
1297.31834,0.21381
1295.82855,0.17705
1294.33876,0.16464
1292.84897,0.13104
1291.35918,0.12308
1289.86939,0.10246
1288.37960,0.08187
1286.88982,0.08148
1285.40003,0.09250
1283.91024,0.07923
1282.42045,0.07115
1280.93066,0.06129
1279.44087,0.06050
1277.95109,0.04474
1276.46130,0.03339
1274.97151,0.03139
1273.48172,0.02941
1271.99193,0.01658
1270.50214,0.02371
1269.01235,0.04353
1267.52257,0.02613
1266.03278,0.04031
1264.54299,0.04882
1263.05320,0.03925
1261.56341,0.03669
1260.07362,0.03415
1258.58384,0.03060
1257.09405,0.01465
1255.60426,0.01658
1254.11447,0.01414
1252.62468,0.01483
1251.13489,0.02149
1249.64511,0.02248
1248.15532,0.03049
1246.66553,0.03101
1245.17574,0.03156
1243.68595,0.00988
1242.19616,0.03837
1240.70637,0.03582
1239.21659,0.03874
1237.72680,0.03832
1236.23701,0.03119
1234.74722,0.03910
1233.25743,0.04017
1231.76764,0.04126
1230.27786,0.02311
1228.78807,0.01843
1227.29828,0.02154
1225.80849,0.01588
1224.31870,0.01878
1222.82891,0.01290
1221.33912,0.02465
1219.84934,0.02646
1218.35955,0.02829
1216.86976,0.04787
1215.37997,0.05039
1213.89018,0.07882
1212.40039,0.08010
1210.91061,0.07545
1209.42082,0.07187
1207.93103,0.07296
1206.44124,0.07408
1204.95145,0.06384
1203.46166,0.06191
1201.97188,0.06465
1200.48209,0.04129
1198.99230,0.04615
1197.50251,0.03784
1196.01272,0.04146
1194.52293,0.03630
1193.03314,0.03117
1191.54336,0.02658
1190.05357,0.04815
1188.56378,0.03119
1187.07399,0.04142
1185.58420,0.02865
1184.09441,0.03116
1182.60463,0.02970
1181.11484,0.02825
1179.62505,0.00988
1178.13526,0.02896
1176.64547,0.01106
1175.15568,0.00974
1173.66589,0.02061
1172.17611,0.02141
1170.68632,0.01563
1169.19653,0.00988
1167.70674,0.02768
1166.21695,0.04240
1164.72716,0.05119
1163.23738,0.05560
1161.74759,0.06030
1160.25780,0.06347
1158.76801,0.06395
1157.27822,0.06445
1155.78843,0.07312
1154.29865,0.09683
1152.80886,0.11125
1151.31907,0.11974
1149.82928,0.09332
1148.33949,0.10108
1146.84970,0.11676
1145.35991,0.13246
1143.87013,0.15375
1142.38034,0.17144
1140.89055,0.18528
1139.40076,0.18982
1137.91097,0.20655
1136.42118,0.21114
1134.93140,0.22662
1133.44161,0.24213
1131.95182,0.24472
1130.46203,0.24605
1128.97224,0.25257
1127.48245,0.24722
1125.99266,0.27527
1124.50288,0.28135
1123.01309,0.27671
1121.52330,0.27210
1120.03351,0.24798
1118.54372,0.26502
1117.05393,0.28390
1115.56415,0.25727
1114.07436,0.25834
1112.58457,0.24676
1111.09478,0.23520
1109.60499,0.25136
1108.11520,0.27167
1106.62542,0.27209
1105.13563,0.26736
1103.64584,0.25670
1102.15605,0.24969
1100.66626,0.24179
1099.17647,0.23392
1097.68668,0.24303
1096.19690,0.22110
1094.70711,0.20852
1093.21732,0.21614
1091.72753,0.21111
1090.23774,0.20494
1088.74795,0.19879
1087.25817,0.19047
1085.76838,0.17053
1084.27859,0.18062
1082.78880,0.17134
1081.29901,0.16854
1079.80922,0.16552
1078.31943,0.18127
1076.82965,0.19705
1075.33986,0.21505
1073.85007,0.22532
1072.36028,0.21827
1070.87049,0.25084
1069.38070,0.25031
1067.89092,0.25808
1066.40113,0.26588
1064.91134,0.31018
1063.42155,0.38271
1061.93176,0.47933
1060.44197,0.56407
1058.95219,0.63926
1057.46240,0.69585
1055.97261,0.75246
1054.48282,0.86808
1052.99303,0.90870
1051.50324,0.90924
1050.01345,0.92972
1048.52367,0.94014
1047.03388,0.92600
1045.54409,0.91189
1044.05430,0.89340
1042.56451,0.76264
1041.07472,0.71238
1039.58494,0.66084
1038.09515,0.60338
1036.60536,0.57829
1035.11557,0.55322
1033.62578,0.50670
1032.13599,0.43898
1030.64620,0.37621
1029.15642,0.29923
1027.66663,0.28722
1026.17684,0.27523
1024.68705,0.24334
1023.19726,0.21433
1021.70747,0.16153
1020.21769,0.14860
1018.72790,0.13544
1017.23811,0.13899
1015.74832,0.14257
1014.25853,0.09947
1012.76874,0.11590
1011.27896,0.11295
1009.78917,0.10071
1008.29938,0.11152
1006.80959,0.09325
1005.31980,0.07500
1003.83001,0.05794
1002.34022,0.02228
1000.85044,0.01070
999.36065,0.02554
997.87086,0.03574
996.38107,0.04597
994.89128,0.05467
993.40149,0.09315
991.91171,0.08508
990.42192,0.10214
988.93213,0.09929
987.44234,0.09492
985.95255,0.09057
984.46276,0.07434
982.97297,0.09721
981.48319,0.07171
979.99340,0.06539
978.50361,0.06103
977.01382,0.05670
975.52403,0.02457
974.03424,0.02585
972.54446,0.01861
971.05467,0.01063
969.56488,0.01042
968.07509,0.01110
966.58530,0.01180
965.09551,0.02198
963.60573,0.01897
962.11594,0.01005
960.62615,0.00988
959.13636,0.01285
957.64657,0.01584
956.15678,0.02921
954.66699,0.03199
953.17721,0.04567
951.68742,0.05238
950.19763,0.05860
948.70784,0.06484
947.21805,0.06464
945.72826,0.08490
944.23848,0.09380
942.74869,0.09264
941.25890,0.12565
939.76911,0.13916
938.27932,0.15268
936.78953,0.17697
935.29974,0.20206
933.80996,0.18604
932.32017,0.20522
930.83038,0.21913
929.34059,0.23306
927.85080,0.26034
926.36101,0.25478
924.87123,0.27176
923.38144,0.32033
921.89165,0.36103
920.40186,0.40176
918.91207,0.47239
917.42228,0.58264
915.93250,0.72266
914.44271,0.95171
912.95292,1.05453
911.46313,1.15737
909.97334,1.34716
908.48355,1.56596
906.99376,1.74002
905.50398,1.91463
904.01419,1.95730
902.52440,2.00000
901.03461,1.99098
899.54482,1.98637
898.05503,1.85553
896.56525,1.66986
895.07546,1.54231
893.58567,1.41477
892.09588,1.15207
890.60609,0.91760
889.11630,0.64538
887.62651,0.49866
886.13673,0.42688
884.64694,0.35512
883.15715,0.26695
881.66736,0.16096
880.17757,0.11967
878.68778,0.10881
877.19800,0.09797
875.70821,0.08082
874.21842,0.04869
872.72863,0.03365
871.23884,0.02252
869.74905,0.02332
868.25927,0.02414
866.76948,0.02939
865.27969,0.01887
863.78990,0.02210
862.30011,0.02301
860.81032,0.03081
859.32053,0.03864
857.83075,0.07171
856.34096,0.08644
854.85117,0.07583
853.36138,0.09009
851.87159,0.09545
850.38180,0.10083
848.89202,0.12008
847.40223,0.15436
845.91244,0.14623
844.42265,0.15248
842.93286,0.15876
841.44307,0.18278
839.95329,0.18277
838.46350,0.21616
836.97371,0.21878
835.48392,0.21509
833.99413,0.21142
832.50434,0.21955
831.01455,0.18450
829.52477,0.19061
828.03498,0.16854
826.54519,0.16719
825.05540,0.16587
823.56561,0.13740
822.07582,0.11361
820.58604,0.11728
819.09625,0.11088
817.60646,0.10450
816.11667,0.09039
814.62688,0.09312
813.13709,0.09509
811.64730,0.09890
810.15752,0.09342
808.66773,0.08797
807.17794,0.09625
805.68815,0.11646
804.19836,0.10693
802.70857,0.10222
801.21879,0.09753
799.72900,0.10852
798.23921,0.11074
796.74942,0.10548
795.25963,0.10593
793.76984,0.10641
792.28006,0.09734
790.79027,0.12478
789.30048,0.13361
787.81069,0.17791
786.32090,0.18963
784.83111,0.20138
783.34132,0.21264
781.85154,0.25005
780.36175,0.27403
778.87196,0.29312
777.38217,0.31224
775.89238,0.33655
774.40259,0.35209
772.91281,0.33428
771.42302,0.33266
769.93323,0.33107
768.44344,0.30247
766.95365,0.25888
765.46386,0.20652
763.97407,0.17747
762.48429,0.16215
760.99450,0.14686
759.50471,0.10391
758.01492,0.10471
756.52513,0.09389
755.03534,0.08012
753.54556,0.06638
752.05577,0.07607
750.56598,0.06380
749.07619,0.04948
747.58640,0.04579
746.09661,0.04213
744.60683,0.03564
743.11704,0.02401
741.62725,0.02481
740.13746,0.02319
738.64767,0.02158
737.15788,0.01134
735.66809,0.01845
734.17831,0.01343
732.68852,0.01193
731.19873,0.01044
729.70894,0.02671
728.21915,0.00988
726.72936,0.01686
725.23958,0.01119
723.74979,0.01433
722.26000,0.01751
720.77021,0.01423
719.28042,0.01047
717.79063,0.00724
716.30084,0.01201
714.81106,0.01680
713.32127,0.00570
711.83148,0.02665
710.34169,0.04453
708.85190,0.03785
707.36211,0.03119
705.87233,0.03930
704.38254,0.02881
702.89275,0.04603
701.40296,0.04930
699.91317,0.05260
698.42338,0.09395
696.93360,0.09496
695.44381,0.09186
693.95402,0.11207
692.46423,0.13231
690.97444,0.13213
689.48465,0.15163
687.99486,0.14969
686.50508,0.17506
685.01529,0.20046
683.52550,0.23352
682.03571,0.25392
680.54592,0.27539
679.05613,0.26582
677.56635,0.25629
676.07656,0.26437
674.58677,0.23470
673.09698,0.25136
671.60719,0.23804
670.11740,0.22474
668.62761,0.19103
667.13783,0.17287
665.64804,0.16921
664.15825,0.16559
662.66846,0.12602
661.17867,0.09708
659.68888,0.08473
658.19910,0.06878
656.70931,0.05285
655.21952,0.04989
653.72973,0.05782
652.23994,0.05335
650.75015,0.05602
649.26037,0.05871
647.77058,0.05018
646.28079,0.03752
644.79100,0.04094
643.30121,0.03623
641.81142,0.03154
640.32163,0.04279
638.83185,0.06311
637.34206,0.04336
635.85227,0.02661
634.36248,0.00988
632.87269,0.02572
631.38290,0.02632
629.89312,0.01737
628.40333,0.01724
626.91354,0.01714
625.42375,0.02689
623.93396,0.02942
622.44417,0.03185
620.95438,0.03430
619.46460,0.05838
617.97481,0.06437
616.48502,0.08824
614.99523,0.10346
613.50544,0.11871
612.01565,0.14550
610.52587,0.19249
609.03608,0.22838
607.54629,0.24127
606.05650,0.25418
604.56671,0.28626
603.07692,0.32096
601.58714,0.33679
600.09735,0.35264
598.60756,0.38767
597.11777,0.41418
595.62798,0.44537
594.13819,0.43959
592.64840,0.43383
591.15862,0.39498
589.66883,0.35356
588.17904,0.33080
586.68925,0.28478
585.19946,0.23878
583.70967,0.18038
582.21989,0.13366
580.73010,0.11878
579.24031,0.10392
577.75052,0.09349
576.26073,0.08386
574.77094,0.06675
573.28115,0.06324
571.79137,0.05976
570.30158,0.06368
568.81179,0.08056
567.32200,0.08725
565.83221,0.09396
564.34242,0.12307
562.85264,0.13228
561.36285,0.16636
559.87306,0.17304
558.38327,0.17974
556.89348,0.18336
555.40369,0.17536
553.91391,0.18756
552.42412,0.19979
550.93433,0.16263
549.44454,0.18034
547.95475,0.21283
546.46496,0.21907
544.97517,0.22534
543.48539,0.25816
541.99560,0.29281
540.50581,0.30886
539.01602,0.32493
537.52623,0.36948
536.03644,0.40863
534.54666,0.45582
533.05687,0.47871
531.56708,0.50163
530.07729,0.54993
528.58750,0.56048
527.09771,0.59990
525.60792,0.63934
524.11814,0.72241
522.62835,0.80420
521.13856,0.83816
519.64877,0.88676
518.15898,0.93538
516.66919,0.95724
515.17941,0.97577
513.68962,0.97970
512.19983,0.98366
510.71004,0.90963
509.22025,0.87082
507.73046,0.76915
506.24068,0.70361
504.75089,0.63809
503.26110,0.54193
501.77131,0.44010
500.28152,0.40609
498.79173,0.37210
497.30194,0.28303
495.81216,0.21079
494.32237,0.18710
492.83258,0.16342
491.34279,0.14560
489.85300,0.13504
488.36321,0.11312
486.87343,0.11710
485.38364,0.12111
483.89385,0.10185
482.40406,0.11030
480.91427,0.12447
479.42448,0.13866
477.93469,0.15029
476.44491,0.17410
474.95512,0.19018
473.46533,0.20628
471.97554,0.22939
470.48575,0.23415
468.99596,0.20944
467.50618,0.20507
466.01639,0.20072
464.52660,0.18566
463.03681,0.13181
461.54702,0.12391
460.05723,0.11604
458.56745,0.08089
457.07766,0.07526
455.58787,0.06254
454.09808,0.04985
452.60829,0.00988
451.11850,0.03109
449.62871,0.03084
448.13893,0.03062
446.64914,0.03767
445.15935,0.04681
443.66956,0.06167
442.17977,0.05948
440.68998,0.05731
439.20020,0.06655
437.71041,0.05615
436.22062,0.06233
434.73083,0.06854
433.24104,0.05381
431.75125,0.05981
430.26146,0.05405
428.77168,0.04833
427.28189,0.06630
425.79210,0.07627
424.30231,0.06764
422.81252,0.05903
421.32273,0.07555
419.83295,0.05483
418.34316,0.04837
416.85337,0.04193
415.36358,0.04483
413.87379,0.06327
412.38400,0.04552
410.89422,0.02779
409.40443,0.03105
407.91464,0.04235
406.42485,0.05471
404.93506,0.05920
403.44527,0.06371
401.95548,0.05415
400.46570,0.04229
398.97591,0.04765
397.48612,0.05304
395.99633,0.05366
394.50654,0.05923
393.01675,0.04580
391.52697,0.03240
390.03718,0.02640
388.54739,0.04154
387.05760,0.04079
385.56781,0.04006
384.07802,0.03509
382.58824,0.04489
381.09845,0.03389
379.60866,0.02291
378.11887,0.04133
376.62908,0.02121
375.13929,0.02674
373.64950,0.03229
372.15972,0.02932
370.66993,0.03958
369.18014,0.04785
367.69035,0.05614
366.20056,0.05554
364.71077,0.05159
363.22099,0.03745
361.73120,0.02333
360.24141,0.00988
358.75162,0.03704
357.26183,0.04843
355.77204,0.05985
354.28225,0.10441
352.79247,0.10216
351.30268,0.08726
349.81289,0.07238
348.32310,0.09686
346.83331,0.08100
345.34352,0.07680
343.85374,0.07263
342.36395,0.04830
340.87416,0.06177
339.38437,0.04629
337.89458,0.03083
336.40479,0.06067
334.91501,0.05173
333.42522,0.04281
331.93543,0.03392
330.44564,0.03954
328.95585,0.06795
327.46606,0.07271
325.97627,0.07750
324.48649,0.04622
322.99670,0.02738
321.50691,0.03017
320.01712,0.03298
318.52733,0.02534
317.03754,0.07179
315.54776,0.10314
314.05797,0.13451
312.56818,0.15542
311.07839,0.10004
309.58860,0.08594
308.09881,0.07187
306.60902,0.04372
305.11924,0.02466
303.62945,0.02166
302.13966,0.00988
300.64987,0.02294
299.16008,0.00988
