1778.52000,0.01194
1777.03021,0.00253
1775.54042,0.00590
1774.05063,0.00580
1772.56085,0.00923
1771.07106,0.00917
1769.58127,0.01666
1768.09148,0.00563
1766.60169,0.01392
1765.11190,0.01021
1763.62212,0.00326
1762.13233,0.00837
1760.64254,0.00523
1759.15275,0.01414
1757.66296,0.01280
1756.17317,0.00398
1754.68339,0.00270
1753.19360,0.00519
1751.70381,0.00972
1750.21402,0.00099
1748.72423,0.01133
1747.23444,0.00916
1745.74465,0.01980
1744.25487,0.01743
1742.76508,0.01359
1741.27529,0.00326
1739.78550,0.00462
1738.29571,0.01764
1736.80592,0.01791
1735.31614,0.01696
1733.82635,0.00852
1732.33656,0.00462
1730.84677,0.00850
1729.35698,0.01090
1727.86719,0.02510
1726.37740,0.00527
1724.88762,0.00374
1723.39783,0.00248
1721.90804,-0.00000
1720.41825,0.00403
1718.92846,0.00208
1717.43867,0.00842
1715.94889,0.00326
1714.45910,0.01471
1712.96931,0.02342
1711.47952,0.01188
1709.98973,0.00963
1708.49994,0.00890
1707.01016,0.00607
1705.52037,0.00326
1704.03058,0.00940
1702.54079,0.01231
1701.05100,0.02376
1699.56121,0.02572
1698.07142,0.02770
1696.58164,0.02770
1695.09185,0.03224
1693.60206,0.03604
1692.11227,0.03837
1690.62248,0.03848
1689.13269,0.04561
1687.64291,0.03725
1686.15312,0.03617
1684.66333,0.05140
1683.17354,0.04662
1681.68375,0.04787
1680.19396,0.05465
1678.70417,0.06046
1677.21439,0.05903
1675.72460,0.05462
1674.23481,0.07102
1672.74502,0.06666
1671.25523,0.07735
1669.76544,0.09608
1668.27566,0.09555
1666.78587,0.10706
1665.29608,0.09957
1663.80629,0.09711
1662.31650,0.09593
1660.82671,0.09703
1659.33693,0.10040
1657.84714,0.11106
1656.35735,0.11874
1654.86756,0.08939
1653.37777,0.08961
1651.88798,0.09436
1650.39819,0.07710
1648.90841,0.08440
1647.41862,0.08322
1645.92883,0.08543
1644.43904,0.08768
1642.94925,0.09032
1641.45946,0.08423
1639.96968,0.09218
1638.47989,0.08689
1636.99010,0.09013
1635.50031,0.09340
1634.01052,0.08843
1632.52073,0.10302
1631.03094,0.09835
1629.54116,0.10948
1628.05137,0.10711
1626.56158,0.11028
1625.07179,0.10871
1623.58200,0.06961
1622.09221,0.06709
1620.60243,0.08663
1619.11264,0.09969
1617.62285,0.08973
1616.13306,0.08806
1614.64327,0.07866
1613.15348,0.09983
1611.66370,0.10850
1610.17391,0.10142
1608.68412,0.10213
1607.19433,0.09735
1605.70454,0.09761
1604.21475,0.09551
1602.72496,0.09344
1601.23518,0.09352
1599.74539,0.08386
1598.25560,0.07899
1596.76581,0.06862
1595.27602,0.07456
1593.78623,0.09104
1592.29645,0.10279
1590.80666,0.09503
1589.31687,0.07803
1587.82708,0.06732
1586.33729,0.07140
1584.84750,0.08453
1583.35771,0.09141
1581.86793,0.08856
1580.37814,0.05969
1578.88835,0.05513
1577.39856,0.05185
1575.90877,0.03883
1574.41898,0.04437
1572.92920,0.04717
1571.43941,0.05375
1569.94962,0.04371
1568.45983,0.03369
1566.97004,0.03685
1565.48025,0.02575
1563.99047,0.01819
1562.50068,0.01615
1561.01089,0.02917
1559.52110,0.02894
1558.03131,0.02999
1556.54152,0.02906
1555.05173,0.02715
1553.56195,0.02226
1552.07216,0.01665
1550.58237,0.02684
1549.09258,0.01827
1547.60279,0.01147
1546.11300,0.00270
1544.62322,0.00472
1543.13343,0.00326
1541.64364,0.01798
1540.15385,0.02007
1538.66406,0.02219
1537.17427,0.01719
1535.68448,0.01598
1534.19470,0.01904
1532.70491,0.00361
1531.21512,0.01624
1529.72533,0.01713
1528.23554,0.00326
1526.74575,0.03777
1525.25597,0.01921
1523.76618,0.03247
1522.27639,0.03325
1520.78660,0.02878
1519.29681,0.02284
1517.80702,0.03020
1516.31724,0.03908
1514.82745,0.03547
1513.33766,0.03627
1511.84787,0.03708
1510.35808,0.04482
1508.86829,0.05082
1507.37850,0.05459
1505.88872,0.05438
1504.39893,0.05820
1502.90914,0.05128
1501.41935,0.05666
1499.92956,0.07007
1498.43977,0.08551
1496.94999,0.08645
1495.46020,0.07965
1493.97041,0.09492
1492.48062,0.11021
1490.99083,0.11575
1489.50104,0.13785
1488.01125,0.14420
1486.52147,0.15057
1485.03168,0.18001
1483.54189,0.20596
1482.05210,0.21617
1480.56231,0.23416
1479.07252,0.23389
1477.58274,0.27171
1476.09295,0.27676
1474.60316,0.29159
1473.11337,0.32097
1471.62358,0.30481
1470.13379,0.32172
1468.64401,0.31086
1467.15422,0.34635
1465.66443,0.35169
1464.17464,0.35705
1462.68485,0.36933
1461.19506,0.43823
1459.70527,0.51115
1458.21549,0.54654
1456.72570,0.61376
1455.23591,0.65045
1453.74612,0.72072
1452.25633,0.75145
1450.76654,0.81626
1449.27676,0.81749
1447.78697,0.79095
1446.29718,0.74365
1444.80739,0.74783
1443.31760,0.75204
1441.82781,0.68929
1440.33802,0.62331
1438.84824,0.56011
1437.35845,0.55703
1435.86866,0.53118
1434.37887,0.56997
1432.88908,0.62231
1431.39929,0.67217
1429.90951,0.72505
1428.41972,0.76119
1426.92993,0.83666
1425.44014,0.88461
1423.95035,0.90855
1422.46056,0.93251
1420.97078,0.96777
1419.48099,1.00906
1417.99120,1.02783
1416.50141,1.01183
1415.01162,0.97832
1413.52183,0.91954
1412.03204,0.91263
1410.54226,0.88019
1409.05247,0.74987
1407.56268,0.67692
1406.07289,0.60024
1404.58310,0.57128
1403.09331,0.54235
1401.60353,0.47902
1400.11374,0.40894
1398.62395,0.38447
1397.13416,0.32496
1395.64437,0.28301
1394.15458,0.22555
1392.66479,0.19592
1391.17501,0.17207
1389.68522,0.13848
1388.19543,0.11468
1386.70564,0.11708
1385.21585,0.11949
1383.72606,0.08600
1382.23628,0.04152
1380.74649,0.03186
1379.25670,0.01422
1377.76691,0.01313
1376.27712,0.02884
1374.78733,0.00326
1373.29755,0.00363
1371.80776,0.01070
1370.31797,0.01655
1368.82818,0.02430
1367.33839,0.03208
1365.84860,0.03149
1364.35881,0.04119
1362.86903,0.04667
1361.37924,0.06618
1359.88945,0.07947
1358.39966,0.11531
1356.90987,0.16095
1355.42008,0.18933
1353.93030,0.26507
1352.44051,0.28686
1350.95072,0.30868
1349.46093,0.37923
1347.97114,0.46884
1346.48135,0.54269
1344.99156,0.62058
1343.50178,0.68772
1342.01199,0.75790
1340.52220,0.79604
1339.03241,0.82545
1337.54262,0.84135
1336.05283,0.88408
1334.56305,0.92683
1333.07326,0.94481
1331.58347,0.93728
1330.09368,0.94730
1328.60389,0.93606
1327.11410,0.89956
1325.62432,0.88110
1324.13453,0.87545
1322.64474,0.84227
1321.15495,0.78308
1319.66516,0.75709
1318.17537,0.73112
1316.68558,0.66749
1315.19580,0.60213
1313.70601,0.57086
1312.21622,0.54011
1310.72643,0.52791
1309.23664,0.45239
1307.74685,0.45627
1306.25707,0.40333
1304.76728,0.37345
1303.27749,0.34360
1301.78770,0.30150
1300.29791,0.28072
1298.80812,0.26822
1297.31834,0.24398
1295.82855,0.18695
1294.33876,0.14749
1292.84897,0.12156
1291.35918,0.09992
1289.86939,0.08995
1288.37960,0.08001
1286.88982,0.07547
1285.40003,0.09124
1283.91024,0.09151
1282.42045,0.08829
1280.93066,0.09062
1279.44087,0.06993
1277.95109,0.05827
1276.46130,0.03788
1274.97151,0.03555
1273.48172,0.03323
1271.99193,0.03270
1270.50214,0.03144
1269.01235,0.04347
1267.52257,0.03074
1266.03278,0.04258
1264.54299,0.04542
1263.05320,0.01373
1261.56341,0.01662
1260.07362,0.01954
1258.58384,0.01898
1257.09405,0.02470
1255.60426,0.01417
1254.11447,0.00417
1252.62468,0.01372
1251.13489,0.00326
1249.64511,0.01187
1248.15532,0.02176
1246.66553,0.03080
1245.17574,0.03986
1243.68595,0.01626
1242.19616,0.03076
1240.70637,0.01898
1239.21659,0.03428
1237.72680,0.01729
1236.23701,0.02137
1234.74722,0.04249
1233.25743,0.02947
1231.76764,0.01646
1230.27786,0.00386
1228.78807,0.00380
1227.29828,0.00326
1225.80849,0.00462
1224.31870,0.02829
1222.82891,0.02168
1221.33912,0.04014
1219.84934,0.04273
1218.35955,0.04534
1216.86976,0.04809
1215.37997,0.05614
1213.89018,0.07171
1212.40039,0.08682
1210.91061,0.09143
1209.42082,0.07402
1207.93103,0.06979
1206.44124,0.06559
1204.95145,0.06729
1203.46166,0.05249
1201.97188,0.05625
1200.48209,0.05452
1198.99230,0.04906
1197.50251,0.05990
1196.01272,0.04998
1194.52293,0.04510
1193.03314,0.04024
1191.54336,0.04492
1190.05357,0.04412
1188.56378,0.02055
1187.07399,0.01253
1185.58420,0.00780
1184.09441,0.01510
1182.60463,0.02143
1181.11484,0.02779
1179.62505,0.01940
1178.13526,0.00326
1176.64547,0.00626
1175.15568,0.00326
1173.66589,0.02272
1172.17611,0.00989
1170.68632,0.00998
1169.19653,0.01010
1167.70674,0.00511
1166.21695,0.01643
1164.72716,0.02801
1163.23738,0.03912
1161.74759,0.04675
1160.25780,0.05441
1158.76801,0.05758
1157.27822,0.06078
1155.78843,0.07677
1154.29865,0.07952
1152.80886,0.09456
1151.31907,0.08758
1149.82928,0.09666
1148.33949,0.13682
1146.84970,0.13480
1145.35991,0.13282
1143.87013,0.13323
1142.38034,0.14794
1140.89055,0.13088
1139.40076,0.17093
1137.91097,0.19072
1136.42118,0.19477
1134.93140,0.20685
1133.44161,0.21895
1131.95182,0.24811
1130.46203,0.25451
1128.97224,0.27746
1127.48245,0.27914
1125.99266,0.22501
1124.50288,0.22950
1123.01309,0.23577
1121.52330,0.24207
1120.03351,0.24363
1118.54372,0.25473
1117.05393,0.27462
1115.56415,0.27099
1114.07436,0.25663
1112.58457,0.24554
1111.09478,0.23448
1109.60499,0.22669
1108.11520,0.21393
1106.62542,0.24701
1105.13563,0.23505
1103.64584,0.24364
1102.15605,0.22797
1100.66626,0.22522
1099.17647,0.22249
1097.68668,0.21766
1096.19690,0.20509
1094.70711,0.19856
1093.21732,0.20858
1091.72753,0.19383
1090.23774,0.19188
1088.74795,0.18995
1087.25817,0.20758
1085.76838,0.17290
1084.27859,0.19108
1082.78880,0.19776
1081.29901,0.19195
1079.80922,0.20795
1078.31943,0.21083
1076.82965,0.21373
1075.33986,0.23231
1073.85007,0.23414
1072.36028,0.24074
1070.87049,0.24587
1069.38070,0.29260
1067.89092,0.30579
1066.40113,0.31901
1064.91134,0.38333
1063.42155,0.45420
1061.93176,0.58543
1060.44197,0.67362
1058.95219,0.73079
1057.46240,0.77746
1055.97261,0.82415
1054.48282,0.91795
1052.99303,0.95818
1051.50324,0.97766
1050.01345,0.97111
1048.52367,0.98563
1047.03388,0.98151
1045.54409,0.97742
1044.05430,0.93717
1042.56451,0.85963
1041.07472,0.77336
1039.58494,0.70088
1038.09515,0.60438
1036.60536,0.58353
1035.11557,0.56271
1033.62578,0.46554
1032.13599,0.39819
1030.64620,0.35416
1029.15642,0.28485
1027.66663,0.25890
1026.17684,0.23297
1024.68705,0.20506
1023.19726,0.18719
1021.70747,0.16634
1020.21769,0.14827
1018.72790,0.13072
1017.23811,0.13098
1015.74832,0.13127
1014.25853,0.11255
1012.76874,0.10387
1011.27896,0.12701
1009.78917,0.10486
1008.29938,0.09825
1006.80959,0.07991
1005.31980,0.06158
1003.83001,0.02525
1002.34022,0.02025
1000.85044,0.00926
999.36065,0.03586
997.87086,0.04934
996.38107,0.06284
994.89128,0.05521
993.40149,0.08767
991.91171,0.09360
990.42192,0.09907
988.93213,0.10405
987.44234,0.10944
985.95255,0.11485
984.46276,0.14545
982.97297,0.10421
981.48319,0.09054
979.99340,0.07965
978.50361,0.06840
977.01382,0.05719
975.52403,0.06615
974.03424,0.03758
972.54446,0.01028
971.05467,0.00956
969.56488,0.01161
968.07509,0.00742
966.58530,0.00326
965.09551,0.01196
963.60573,0.01066
962.11594,0.02165
960.62615,0.01865
959.13636,0.01179
957.64657,0.00496
956.15678,0.02181
954.66699,0.02166
953.17721,0.02880
951.68742,0.00642
950.19763,0.01686
948.70784,0.02732
947.21805,0.05484
945.72826,0.07638
944.23848,0.10570
942.74869,0.10375
941.25890,0.10507
939.76911,0.10442
938.27932,0.10379
936.78953,0.12673
935.29974,0.15469
933.80996,0.16666
932.32017,0.19693
930.83038,0.20619
929.34059,0.21548
927.85080,0.24908
926.36101,0.29948
924.87123,0.33614
923.38144,0.34252
921.89165,0.36319
920.40186,0.38390
918.91207,0.50304
917.42228,0.64399
915.93250,0.83429
914.44271,1.02187
912.95292,1.12972
911.46313,1.23759
909.97334,1.42323
908.48355,1.62794
906.99376,1.79210
905.50398,1.88892
904.01419,1.93995
902.52440,1.99100
901.03461,2.00000
899.54482,1.97823
898.05503,1.86383
896.56525,1.68985
895.07546,1.55259
893.58567,1.41535
892.09588,1.15881
890.60609,0.87125
889.11630,0.68989
887.62651,0.48125
886.13673,0.42339
884.64694,0.36556
883.15715,0.28321
881.66736,0.20589
880.17757,0.13686
878.68778,0.12119
877.19800,0.10555
875.70821,0.09895
874.21842,0.05931
872.72863,0.04224
871.23884,0.02269
869.74905,0.03322
868.25927,0.04377
866.76948,0.04207
865.27969,0.03138
863.78990,0.03975
862.30011,0.07444
860.81032,0.08161
859.32053,0.08880
857.83075,0.11304
856.34096,0.12379
854.85117,0.10451
853.36138,0.13409
851.87159,0.13752
850.38180,0.14098
848.89202,0.15736
847.40223,0.19955
845.91244,0.23251
844.42265,0.23632
842.93286,0.24015
841.44307,0.24263
839.95329,0.26091
838.46350,0.26970
836.97371,0.29479
835.48392,0.30250
833.99413,0.31024
832.50434,0.29258
831.01455,0.27245
829.52477,0.27112
828.03498,0.23726
826.54519,0.21457
825.05540,0.19190
823.56561,0.17039
822.07582,0.13362
820.58604,0.14496
819.09625,0.15082
817.60646,0.15670
816.11667,0.15258
814.62688,0.12971
813.13709,0.12966
811.64730,0.10659
810.15752,0.12036
808.66773,0.13415
807.17794,0.15122
805.68815,0.15128
804.19836,0.12934
802.70857,0.12883
801.21879,0.12835
799.72900,0.14003
798.23921,0.14423
796.74942,0.12291
795.25963,0.11413
793.76984,0.10538
792.28006,0.14649
790.79027,0.15056
789.30048,0.17544
787.81069,0.20235
786.32090,0.22878
784.83111,0.25524
783.34132,0.27195
781.85154,0.31724
780.36175,0.33575
778.87196,0.34152
777.38217,0.34732
775.89238,0.39571
774.40259,0.41683
772.91281,0.40467
771.42302,0.39078
769.93323,0.37692
768.44344,0.34129
766.95365,0.28916
765.46386,0.24733
763.97407,0.21228
762.48429,0.19716
760.99450,0.18207
759.50471,0.15661
758.01492,0.10989
756.52513,0.10301
755.03534,0.09315
753.54556,0.08331
752.05577,0.06248
750.56598,0.05745
749.07619,0.05645
747.58640,0.04446
746.09661,0.03250
744.60683,0.03633
743.11704,0.02692
741.62725,0.02705
740.13746,0.02219
738.64767,0.01736
737.15788,0.00704
735.66809,0.00326
734.17831,0.00780
732.68852,0.00760
731.19873,0.00743
729.70894,0.00228
728.21915,0.00874
726.72936,0.02200
725.23958,0.01800
723.74979,0.01990
722.26000,0.02184
720.77021,0.02943
719.28042,0.00750
717.79063,0.01416
716.30084,0.00870
714.81106,0.00326
713.32127,0.02440
711.83148,0.02227
710.34169,0.02869
708.85190,0.02511
707.36211,0.02155
705.87233,0.02228
704.38254,0.04983
702.89275,0.04434
701.40296,0.04502
699.91317,0.04572
698.42338,0.05183
696.93360,0.06597
695.44381,0.09392
693.95402,0.09935
692.46423,0.10481
690.97444,0.13057
689.48465,0.16663
687.99486,0.16740
686.50508,0.17534
685.01529,0.18329
683.52550,0.19791
682.03571,0.20179
680.54592,0.22848
679.05613,0.23992
677.56635,0.25138
676.07656,0.27188
674.58677,0.26261
673.09698,0.24460
671.60719,0.22060
670.11740,0.19663
668.62761,0.16267
667.13783,0.14450
665.64804,0.14815
664.15825,0.15182
662.66846,0.10369
661.17867,0.08512
659.68888,0.07009
658.19910,0.05044
656.70931,0.03082
655.21952,0.04241
653.72973,0.05752
652.23994,0.08418
650.75015,0.07092
649.26037,0.05769
647.77058,0.06614
646.28079,0.04582
644.79100,0.04180
643.30121,0.03843
641.81142,0.03508
640.32163,0.01786
638.83185,0.04625
637.34206,0.02432
635.85227,0.01682
634.36248,0.00934
632.87269,0.00326
631.38290,0.01198
629.89312,0.02223
628.40333,0.01484
626.91354,0.00748
625.42375,0.01129
623.93396,0.03616
622.44417,0.03388
620.95438,0.03162
619.46460,0.04104
617.97481,0.05474
616.48502,0.07772
614.99523,0.08596
613.50544,0.09422
612.01565,0.13381
610.52587,0.17743
609.03608,0.20981
607.54629,0.21354
606.05650,0.21729
604.56671,0.27303
603.07692,0.34106
601.58714,0.35516
600.09735,0.36928
598.60756,0.39381
597.11777,0.43415
595.62798,0.44196
594.13819,0.42049
592.64840,0.39905
591.15862,0.37713
589.66883,0.34948
588.17904,0.28028
586.68925,0.25318
585.19946,0.22610
583.70967,0.19479
582.21989,0.14949
580.73010,0.11597
579.24031,0.08248
577.75052,0.10135
576.26073,0.06641
574.77094,0.06455
573.28115,0.06096
571.79137,0.05739
570.30158,0.08265
568.81179,0.08263
567.32200,0.09154
565.83221,0.10046
564.34242,0.10128
562.85264,0.14318
561.36285,0.14530
559.87306,0.16572
558.38327,0.18617
556.89348,0.18835
555.40369,0.16928
553.91391,0.17716
552.42412,0.18505
550.93433,0.21464
549.44454,0.21294
547.95475,0.21929
546.46496,0.24419
544.97517,0.26911
543.48539,0.27829
541.99560,0.27496
540.50581,0.29633
539.01602,0.31772
537.52623,0.35153
536.03644,0.37811
534.54666,0.39469
533.05687,0.40379
531.56708,0.41291
530.07729,0.48190
528.58750,0.53489
527.09771,0.56900
525.60792,0.60314
524.11814,0.65195
522.62835,0.69026
521.13856,0.74613
519.64877,0.76509
518.15898,0.78408
516.66919,0.81823
515.17941,0.83990
513.68962,0.82101
512.19983,0.80216
510.71004,0.76956
509.22025,0.73447
507.73046,0.65810
506.24068,0.61542
504.75089,0.57278
503.26110,0.47669
501.77131,0.37738
500.28152,0.33005
498.79173,0.28274
497.30194,0.20979
495.81216,0.17143
494.32237,0.16088
492.83258,0.15036
491.34279,0.08753
489.85300,0.06053
488.36321,0.05309
486.87343,0.04704
485.38364,0.04103
483.89385,0.06196
482.40406,0.07590
480.91427,0.09099
479.42448,0.10611
477.93469,0.12263
476.44491,0.11639
474.95512,0.13408
473.46533,0.15181
471.97554,0.17944
470.48575,0.20786
468.99596,0.17970
467.50618,0.17886
466.01639,0.17805
464.52660,0.12368
463.03681,0.09061
461.54702,0.08574
460.05723,0.08090
458.56745,0.05717
457.07766,0.03898
455.58787,0.02845
454.09808,0.01795
452.60829,0.02437
451.11850,0.01454
449.62871,0.01400
448.13893,0.01349
446.64914,0.01174
445.15935,0.00326
443.66956,0.00405
442.17977,0.01801
440.68998,0.03200
439.20020,0.02710
437.71041,0.03625
436.22062,0.03767
434.73083,0.03910
433.24104,0.03330
431.75125,0.04255
430.26146,0.04532
428.77168,0.04811
427.28189,0.07221
425.79210,0.04925
424.30231,0.03684
422.81252,0.02445
421.32273,0.01284
419.83295,0.02579
418.34316,0.02575
416.85337,0.02573
415.36358,0.04001
413.87379,0.03253
412.38400,0.02745
410.89422,0.02240
409.40443,0.03753
407.91464,0.04868
406.42485,0.04107
404.93506,0.03524
403.44527,0.02943
401.95548,0.02966
400.46570,0.02540
398.97591,0.03194
397.48612,0.03851
395.99633,0.03508
394.50654,0.05070
393.01675,0.03944
391.52697,0.02819
390.03718,0.03635
388.54739,0.01849
387.05760,0.02908
385.56781,0.03970
384.07802,0.03193
382.58824,0.01392
381.09845,0.00858
379.60866,0.00326
378.11887,0.02024
376.62908,0.00568
375.13929,0.01807
373.64950,0.03049
372.15972,0.02678
370.66993,0.06591
369.18014,0.04785
367.69035,0.02981
366.20056,0.03127
364.71077,0.04827
363.22099,0.05678
361.73120,0.06532
360.24141,0.06812
358.75162,0.04992
357.26183,0.05089
355.77204,0.05189
354.28225,0.05680
352.79247,0.07350
351.30268,0.07081
349.81289,0.06816
348.32310,0.07742
346.83331,0.10724
345.34352,0.10365
343.85374,0.10009
342.36395,0.10044
340.87416,0.06099
339.38437,0.03622
337.89458,0.01147
336.40479,0.01016
334.91501,0.03442
333.42522,0.03466
331.93543,0.03493
330.44564,0.01594
328.95585,0.02703
327.46606,0.03676
325.97627,0.04652
324.48649,0.04716
322.99670,0.04157
321.50691,0.02410
320.01712,0.00666
318.52733,0.02849
317.03754,0.04408
315.54776,0.06358
314.05797,0.08310
312.56818,0.09852
311.07839,0.12523
309.58860,0.11465
308.09881,0.10410
306.60902,0.09232
305.11924,0.05802
303.62945,0.04329
302.13966,0.02858
300.64987,0.00337
299.16008,0.00326
