1778.52000,0.00910
1777.03021,0.01454
1775.54042,0.00754
1774.05063,0.00724
1772.56085,0.00000
1771.07106,0.00787
1769.58127,0.00561
1768.09148,0.00744
1766.60169,0.00785
1765.11190,0.00334
1763.62212,0.01308
1762.13233,0.01124
1760.64254,0.00769
1759.15275,0.02475
1757.66296,0.01980
1756.17317,0.00385
1754.68339,0.01113
1753.19360,0.01234
1751.70381,0.01996
1750.21402,0.01920
1748.72423,0.00424
1747.23444,0.01477
1745.74465,0.01256
1744.25487,0.00835
1742.76508,0.01287
1741.27529,0.00871
1739.78550,0.01240
1738.29571,0.02425
1736.80592,0.00827
1735.31614,0.01358
1733.82635,0.02676
1732.33656,0.00920
1730.84677,0.02127
1729.35698,0.01102
1727.86719,0.01878
1726.37740,0.02048
1724.88762,0.00654
1723.39783,0.00944
1721.90804,0.00396
1720.41825,0.00402
1718.92846,0.01136
1717.43867,0.00334
1715.94889,0.02090
1714.45910,0.02223
1712.96931,0.02069
1711.47952,0.01308
1709.98973,0.02494
1708.49994,0.01448
1707.01016,0.01304
1705.52037,0.01162
1704.03058,0.00878
1702.54079,0.01322
1701.05100,0.02581
1699.56121,0.03117
1698.07142,0.02756
1696.58164,0.02949
1695.09185,0.04595
1693.60206,0.04010
1692.11227,0.03717
1690.62248,0.03775
1689.13269,0.05635
1687.64291,0.05553
1686.15312,0.05038
1684.66333,0.05310
1683.17354,0.06135
1681.68375,0.06324
1680.19396,0.06313
1678.70417,0.06594
1677.21439,0.07691
1675.72460,0.07136
1674.23481,0.08354
1672.74502,0.07514
1671.25523,0.07054
1669.76544,0.10600
1668.27566,0.10464
1666.78587,0.08706
1665.29608,0.10055
1663.80629,0.10043
1662.31650,0.10729
1660.82671,0.12202
1659.33693,0.12749
1657.84714,0.11876
1656.35735,0.11094
1654.86756,0.10488
1653.37777,0.10348
1651.88798,0.10821
1650.39819,0.08801
1648.90841,0.10033
1647.41862,0.10339
1645.92883,0.09835
1644.43904,0.09334
1642.94925,0.09096
1641.45946,0.10225
1639.96968,0.10079
1638.47989,0.11271
1636.99010,0.09477
1635.50031,0.08759
1634.01052,0.09581
1632.52073,0.10957
1631.03094,0.10652
1629.54116,0.10119
1628.05137,0.11415
1626.56158,0.07695
1625.07179,0.09258
1623.58200,0.06849
1622.09221,0.07633
1620.60243,0.09435
1619.11264,0.10834
1617.62285,0.11887
1616.13306,0.10883
1614.64327,0.09505
1613.15348,0.09405
1611.66370,0.10439
1610.17391,0.10722
1608.68412,0.10108
1607.19433,0.11730
1605.70454,0.12716
1604.21475,0.11327
1602.72496,0.09939
1601.23518,0.09831
1599.74539,0.09667
1598.25560,0.09361
1596.76581,0.08448
1595.27602,0.12296
1593.78623,0.09705
1592.29645,0.11208
1590.80666,0.09638
1589.31687,0.08274
1587.82708,0.08652
1586.33729,0.09962
1584.84750,0.11303
1583.35771,0.10297
1581.86793,0.08743
1580.37814,0.08525
1578.88835,0.08223
1577.39856,0.06618
1575.90877,0.07278
1574.41898,0.05968
1572.92920,0.07649
1571.43941,0.06315
1569.94962,0.06391
1568.45983,0.06469
1566.97004,0.03954
1565.48025,0.04806
1563.99047,0.04906
1562.50068,0.03211
1561.01089,0.05144
1559.52110,0.05049
1558.03131,0.05653
1556.54152,0.03300
1555.05173,0.05389
1553.56195,0.04346
1552.07216,0.04264
1550.58237,0.05780
1549.09258,0.03585
1547.60279,0.02234
1546.11300,0.00334
1544.62322,0.02915
1543.13343,0.02887
1541.64364,0.00541
1540.15385,0.01186
1538.66406,0.01833
1537.17427,0.02511
1535.68448,0.02844
1534.19470,0.01816
1532.70491,0.01632
1531.21512,0.00522
1529.72533,0.01098
1528.23554,0.02459
1526.74575,0.01009
1525.25597,0.01446
1523.76618,0.04498
1522.27639,0.04361
1520.78660,0.03268
1519.29681,0.03397
1517.80702,0.03674
1516.31724,0.02561
1514.82745,0.02726
1513.33766,0.03242
1511.84787,0.03761
1510.35808,0.03760
1508.86829,0.04691
1507.37850,0.05420
1505.88872,0.03570
1504.39893,0.05407
1502.90914,0.05187
1501.41935,0.03722
1499.92956,0.05364
1498.43977,0.06341
1496.94999,0.08074
1495.46020,0.08563
1493.97041,0.09780
1492.48062,0.11202
1490.99083,0.12627
1489.50104,0.15272
1488.01125,0.14512
1486.52147,0.13754
1485.03168,0.17133
1483.54189,0.18860
1482.05210,0.21577
1480.56231,0.25572
1479.07252,0.27946
1477.58274,0.27943
1476.09295,0.29045
1474.60316,0.27916
1473.11337,0.32069
1471.62358,0.32019
1470.13379,0.31652
1468.64401,0.32418
1467.15422,0.37945
1465.66443,0.39326
1464.17464,0.40710
1462.68485,0.42792
1461.19506,0.46125
1459.70527,0.54217
1458.21549,0.56945
1456.72570,0.63709
1455.23591,0.68792
1453.74612,0.78519
1452.25633,0.80764
1450.76654,0.79879
1449.27676,0.81520
1447.78697,0.79828
1446.29718,0.79646
1444.80739,0.78206
1443.31760,0.76767
1441.82781,0.69689
1440.33802,0.61888
1438.84824,0.61603
1437.35845,0.57376
1435.86866,0.57270
1434.37887,0.58357
1432.88908,0.58604
1431.39929,0.64859
1429.90951,0.70653
1428.41972,0.73403
1426.92993,0.83496
1425.44014,0.89036
1423.95035,0.92461
1422.46056,0.95888
1420.97078,1.00856
1419.48099,1.04202
1417.99120,1.02241
1416.50141,1.00834
1415.01162,0.98705
1413.52183,0.93792
1412.03204,0.88129
1410.54226,0.77245
1409.05247,0.67032
1407.56268,0.64538
1406.07289,0.57260
1404.58310,0.54771
1403.09331,0.52284
1401.60353,0.44753
1400.11374,0.39138
1398.62395,0.36137
1397.13416,0.32704
1395.64437,0.27300
1394.15458,0.23930
1392.66479,0.19140
1391.17501,0.17660
1389.68522,0.13137
1388.19543,0.11082
1386.70564,0.09842
1385.21585,0.08605
1383.72606,0.07950
1382.23628,0.04658
1380.74649,0.02993
1379.25670,0.04174
1377.76691,0.01818
1376.27712,0.00334
1374.78733,0.00945
1373.29755,0.00978
1371.80776,0.00752
1370.31797,0.03923
1368.82818,0.03282
1367.33839,0.02643
1365.84860,0.03733
1364.35881,0.02475
1362.86903,0.04557
1361.37924,0.05799
1359.88945,0.09887
1358.39966,0.13079
1356.90987,0.15228
1355.42008,0.20398
1353.93030,0.26295
1352.44051,0.29090
1350.95072,0.31888
1349.46093,0.42811
1347.97114,0.49676
1346.48135,0.54367
1344.99156,0.62165
1343.50178,0.68399
1342.01199,0.74113
1340.52220,0.78089
1339.03241,0.82068
1337.54262,0.89153
1336.05283,0.92209
1334.56305,0.95267
1333.07326,0.97863
1331.58347,1.03276
1330.09368,0.93810
1328.60389,0.90148
1327.11410,0.89273
1325.62432,0.90345
1324.13453,0.91883
1322.64474,0.83386
1321.15495,0.80781
1319.66516,0.76017
1318.17537,0.71256
1316.68558,0.68427
1315.19580,0.63250
1313.70601,0.59091
1312.21622,0.56878
1310.72643,0.51013
1309.23664,0.48863
1307.74685,0.49182
1306.25707,0.41787
1304.76728,0.38992
1303.27749,0.36200
1301.78770,0.34847
1300.29791,0.30160
1298.80812,0.27419
1297.31834,0.20126
1295.82855,0.18028
1294.33876,0.13786
1292.84897,0.12535
1291.35918,0.09778
1289.86939,0.09591
1288.37960,0.09406
1286.88982,0.09209
1285.40003,0.11017
1283.91024,0.10622
1282.42045,0.10433
1280.93066,0.10044
1279.44087,0.05943
1277.95109,0.03789
1276.46130,0.05786
1274.97151,0.04870
1273.48172,0.03957
1271.99193,0.02973
1270.50214,0.04690
1269.01235,0.03480
1267.52257,0.04187
1266.03278,0.03532
1264.54299,0.00937
1263.05320,0.01245
1261.56341,0.02427
1260.07362,0.03610
1258.58384,0.03607
1257.09405,0.02881
1255.60426,0.00881
1254.11447,0.00334
1252.62468,0.02761
1251.13489,0.03131
1249.64511,0.01269
1248.15532,0.03384
1246.66553,0.03268
1245.17574,0.03155
1243.68595,0.04814
1242.19616,0.04415
1240.70637,0.04164
1239.21659,0.02698
1237.72680,0.02829
1236.23701,0.04820
1234.74722,0.04753
1233.25743,0.02934
1231.76764,0.01117
1230.27786,0.00942
1228.78807,0.00334
1227.29828,0.01143
1225.80849,0.00736
1224.31870,0.03581
1222.82891,0.03817
1221.33912,0.07131
1219.84934,0.07387
1218.35955,0.07645
1216.86976,0.05281
1215.37997,0.08431
1213.89018,0.08131
1212.40039,0.09488
1210.91061,0.07975
1209.42082,0.08408
1207.93103,0.08452
1206.44124,0.08499
1204.95145,0.10245
1203.46166,0.07120
1201.97188,0.08117
1200.48209,0.06912
1198.99230,0.07740
1197.50251,0.07237
1196.01272,0.06997
1194.52293,0.06672
1193.03314,0.06350
1191.54336,0.02897
1190.05357,0.02639
1188.56378,0.02034
1187.07399,0.03434
1185.58420,0.04546
1184.09441,0.03688
1182.60463,0.04370
1181.11484,0.05055
1179.62505,0.03015
1178.13526,0.04778
1176.64547,0.03295
1175.15568,0.00334
1173.66589,0.01543
1172.17611,0.03277
1170.68632,0.02532
1169.19653,0.01791
1167.70674,0.04257
1166.21695,0.03912
1164.72716,0.04266
1163.23738,0.04187
1161.74759,0.05184
1160.25780,0.07663
1158.76801,0.08781
1157.27822,0.09902
1155.78843,0.11199
1154.29865,0.10990
1152.80886,0.08057
1151.31907,0.08405
1149.82928,0.11772
1148.33949,0.16331
1146.84970,0.14990
1145.35991,0.13650
1143.87013,0.13924
1142.38034,0.12024
1140.89055,0.14652
1139.40076,0.17718
1137.91097,0.18379
1136.42118,0.20289
1134.93140,0.21695
1133.44161,0.23103
1131.95182,0.23222
1130.46203,0.26652
1128.97224,0.26225
1127.48245,0.26150
1125.99266,0.23320
1124.50288,0.24526
1123.01309,0.25589
1121.52330,0.26655
1120.03351,0.26766
1118.54372,0.27315
1117.05393,0.27576
1115.56415,0.24416
1114.07436,0.27207
1112.58457,0.26097
1111.09478,0.24991
1109.60499,0.21319
1108.11520,0.23742
1106.62542,0.24137
1105.13563,0.23403
1103.64584,0.23688
1102.15605,0.22321
1100.66626,0.22755
1099.17647,0.23192
1097.68668,0.22180
1096.19690,0.21723
1094.70711,0.21326
1093.21732,0.22991
1091.72753,0.22367
1090.23774,0.22471
1088.74795,0.22578
1087.25817,0.21410
1085.76838,0.20187
1084.27859,0.21491
1082.78880,0.21753
1081.29901,0.21176
1079.80922,0.20572
1078.31943,0.21233
1076.82965,0.21896
1075.33986,0.23476
1073.85007,0.23753
1072.36028,0.25309
1070.87049,0.25214
1069.38070,0.28893
1067.89092,0.32241
1066.40113,0.35591
1064.91134,0.40670
1063.42155,0.48043
1061.93176,0.58523
1060.44197,0.64480
1058.95219,0.73341
1057.46240,0.78635
1055.97261,0.83933
1054.48282,0.91814
1052.99303,1.01584
1051.50324,1.02509
1050.01345,1.00419
1048.52367,1.03379
1047.03388,1.02585
1045.54409,1.01793
1044.05430,0.95913
1042.56451,0.90209
1041.07472,0.81317
1039.58494,0.72253
1038.09515,0.61364
1036.60536,0.58122
1035.11557,0.54883
1033.62578,0.49310
1032.13599,0.43508
1030.64620,0.37535
1029.15642,0.30665
1027.66663,0.28381
1026.17684,0.26099
1024.68705,0.21702
1023.19726,0.19339
1021.70747,0.17442
1020.21769,0.16099
1018.72790,0.15020
1017.23811,0.15031
1015.74832,0.15045
1014.25853,0.14379
1012.76874,0.12527
1011.27896,0.17001
1009.78917,0.15879
1008.29938,0.10292
1006.80959,0.09117
1005.31980,0.07944
1003.83001,0.04193
1002.34022,0.03170
1000.85044,0.03717
999.36065,0.03512
997.87086,0.03687
996.38107,0.03864
994.89128,0.05814
993.40149,0.08114
991.91171,0.10388
990.42192,0.11010
988.93213,0.13376
987.44234,0.12713
985.95255,0.12052
984.46276,0.14077
982.97297,0.12131
981.48319,0.10187
979.99340,0.09116
978.50361,0.07699
977.01382,0.06285
975.52403,0.05627
974.03424,0.04305
972.54446,0.01187
971.05467,0.00334
969.56488,0.00964
968.07509,0.01060
966.58530,0.01159
965.09551,0.01448
963.60573,0.02668
962.11594,0.04355
960.62615,0.02796
959.13636,0.01761
957.64657,0.00729
956.15678,0.00163
954.66699,0.00814
953.17721,0.03121
951.68742,0.04647
950.19763,0.04986
948.70784,0.05328
947.21805,0.07123
945.72826,0.07847
944.23848,0.07210
942.74869,0.10608
941.25890,0.13197
939.76911,0.13641
938.27932,0.14088
936.78953,0.16713
935.29974,0.17135
933.80996,0.20462
932.32017,0.23791
930.83038,0.23902
929.34059,0.24016
927.85080,0.27817
926.36101,0.30547
924.87123,0.32467
923.38144,0.36333
921.89165,0.41203
920.40186,0.46075
918.91207,0.57898
917.42228,0.70130
915.93250,0.86570
914.44271,1.03478
912.95292,1.15760
911.46313,1.28045
909.97334,1.48384
908.48355,1.65272
906.99376,1.83672
905.50398,1.96330
904.01419,1.94616
902.52440,1.92904
901.03461,2.00000
899.54482,1.96916
898.05503,1.85740
896.56525,1.66328
895.07546,1.53837
893.58567,1.41349
892.09588,1.12488
890.60609,0.88328
889.11630,0.70350
887.62651,0.49387
886.13673,0.43801
884.64694,0.38219
883.15715,0.28954
881.66736,0.23521
880.17757,0.13885
878.68778,0.12098
877.19800,0.10314
875.70821,0.08692
874.21842,0.05535
872.72863,0.04527
871.23884,0.04073
869.74905,0.03955
868.25927,0.03840
866.76948,0.05656
865.27969,0.06489
863.78990,0.06830
862.30011,0.09351
860.81032,0.09712
859.32053,0.10076
857.83075,0.14838
856.34096,0.12321
854.85117,0.16130
853.36138,0.17650
851.87159,0.17621
850.38180,0.17594
848.89202,0.20167
847.40223,0.22973
845.91244,0.22766
844.42265,0.24171
842.93286,0.25578
841.44307,0.26741
839.95329,0.30025
838.46350,0.29975
836.97371,0.33467
835.48392,0.33959
833.99413,0.34453
832.50434,0.31252
831.01455,0.33013
829.52477,0.28656
828.03498,0.24098
826.54519,0.22140
825.05540,0.20183
823.56561,0.21551
822.07582,0.17468
820.58604,0.19160
819.09625,0.17519
817.60646,0.15880
816.11667,0.14215
814.62688,0.16729
813.13709,0.16752
811.64730,0.15529
810.15752,0.15557
808.66773,0.15587
807.17794,0.15823
805.68815,0.14900
804.19836,0.15982
802.70857,0.16632
801.21879,0.17284
799.72900,0.17445
798.23921,0.15520
796.74942,0.14990
795.25963,0.13810
793.76984,0.12633
792.28006,0.15070
790.79027,0.17393
789.30048,0.19342
787.81069,0.24020
786.32090,0.26700
784.83111,0.29381
783.34132,0.31311
781.85154,0.33360
780.36175,0.36049
778.87196,0.38683
777.38217,0.41319
775.89238,0.44190
774.40259,0.46484
772.91281,0.45821
771.42302,0.45030
769.93323,0.44241
768.44344,0.39321
766.95365,0.31502
765.46386,0.29431
763.97407,0.24895
762.48429,0.23032
760.99450,0.21170
759.50471,0.15714
758.01492,0.13249
756.52513,0.11483
755.03534,0.11184
753.54556,0.10887
752.05577,0.09854
750.56598,0.08619
749.07619,0.09070
747.58640,0.08567
746.09661,0.08065
744.60683,0.05971
743.11704,0.04779
741.62725,0.02283
740.13746,0.02039
738.64767,0.01797
737.15788,0.01804
735.66809,0.00334
734.17831,0.01428
732.68852,0.01030
731.19873,0.00635
729.70894,0.01562
728.21915,0.00432
726.72936,0.02487
725.23958,0.01410
723.74979,0.01323
722.26000,0.01238
720.77021,0.00315
719.28042,0.00510
717.79063,0.00330
716.30084,0.00733
714.81106,0.01138
713.32127,0.00212
711.83148,0.03898
710.34169,0.02685
708.85190,0.02242
707.36211,0.01803
705.87233,0.04455
704.38254,0.03077
702.89275,0.03385
701.40296,0.04159
699.91317,0.04936
698.42338,0.06615
696.93360,0.07832
695.44381,0.08645
693.95402,0.08809
692.46423,0.08975
690.97444,0.14670
689.48465,0.14014
687.99486,0.14898
686.50508,0.15582
685.01529,0.16268
683.52550,0.19887
682.03571,0.21913
680.54592,0.23361
679.05613,0.24275
677.56635,0.25191
676.07656,0.28910
674.58677,0.26887
673.09698,0.21676
671.60719,0.20137
670.11740,0.18600
668.62761,0.19401
667.13783,0.19364
665.64804,0.16530
664.15825,0.13698
662.66846,0.11115
661.17867,0.07752
659.68888,0.08394
658.19910,0.06863
656.70931,0.05335
655.21952,0.04216
653.72973,0.05188
652.23994,0.07613
650.75015,0.06602
649.26037,0.05595
647.77058,0.05619
646.28079,0.03384
644.79100,0.03878
643.30121,0.03257
641.81142,0.02639
640.32163,0.02358
638.83185,0.01904
637.34206,0.00786
635.85227,0.00982
634.36248,0.01181
632.87269,0.00961
631.38290,0.01179
629.89312,0.01574
628.40333,0.01579
626.91354,0.01587
625.42375,0.02309
623.93396,0.00334
622.44417,0.01691
620.95438,0.03051
619.46460,0.04122
617.97481,0.05081
616.48502,0.05142
614.99523,0.06947
613.50544,0.08754
612.01565,0.10216
610.52587,0.15916
609.03608,0.19732
607.54629,0.21260
606.05650,0.22790
604.56671,0.28761
603.07692,0.32297
601.58714,0.34415
600.09735,0.36535
598.60756,0.41153
597.11777,0.39072
595.62798,0.42012
594.13819,0.40357
592.64840,0.38704
591.15862,0.35850
589.66883,0.32244
588.17904,0.27770
586.68925,0.25663
585.19946,0.23559
583.70967,0.17033
582.21989,0.14427
580.73010,0.11866
579.24031,0.09308
577.75052,0.10306
576.26073,0.08753
574.77094,0.06072
573.28115,0.04815
571.79137,0.03561
570.30158,0.05732
568.81179,0.07673
567.32200,0.08530
565.83221,0.09389
564.34242,0.12730
562.85264,0.15727
561.36285,0.17246
559.87306,0.19029
558.38327,0.20814
556.89348,0.19237
555.40369,0.19200
553.91391,0.22299
552.42412,0.25400
550.93433,0.24529
549.44454,0.24850
547.95475,0.24129
546.46496,0.25950
544.97517,0.27773
543.48539,0.29061
541.99560,0.29569
540.50581,0.32241
539.01602,0.34916
537.52623,0.38999
536.03644,0.40330
534.54666,0.46159
533.05687,0.46813
531.56708,0.47470
530.07729,0.51972
528.58750,0.60365
527.09771,0.62610
525.60792,0.64858
524.11814,0.70647
522.62835,0.72378
521.13856,0.78056
519.64877,0.81329
518.15898,0.84605
516.66919,0.89073
515.17941,0.93340
513.68962,0.92402
512.19983,0.91467
510.71004,0.83761
509.22025,0.76144
507.73046,0.69690
506.24068,0.64979
504.75089,0.60271
503.26110,0.51939
501.77131,0.40911
500.28152,0.35225
498.79173,0.29540
497.30194,0.24235
495.81216,0.22182
494.32237,0.20770
492.83258,0.19360
491.34279,0.12325
489.85300,0.09209
488.36321,0.07285
486.87343,0.06132
485.38364,0.04982
483.89385,0.07910
482.40406,0.12117
480.91427,0.12381
479.42448,0.12648
477.93469,0.17153
476.44491,0.16845
474.95512,0.19034
473.46533,0.21225
471.97554,0.23216
470.48575,0.22657
468.99596,0.21056
467.50618,0.22185
466.01639,0.23316
464.52660,0.18067
463.03681,0.12270
461.54702,0.11914
460.05723,0.11562
458.56745,0.08412
457.07766,0.06773
455.58787,0.06791
454.09808,0.06811
452.60829,0.03874
451.11850,0.03000
449.62871,0.02665
448.13893,0.02332
446.64914,0.00334
445.15935,0.02687
443.66956,0.01300
442.17977,0.03832
440.68998,0.06366
439.20020,0.06814
437.71041,0.08861
436.22062,0.08777
434.73083,0.08696
433.24104,0.07182
431.75125,0.06077
430.26146,0.06627
428.77168,0.07180
427.28189,0.05821
425.79210,0.05654
424.30231,0.04720
422.81252,0.03790
421.32273,0.05893
419.83295,0.03589
418.34316,0.04378
416.85337,0.05169
415.36358,0.05513
413.87379,0.06642
412.38400,0.06484
410.89422,0.06327
409.40443,0.06043
407.91464,0.05414
406.42485,0.05802
404.93506,0.06323
403.44527,0.06847
401.95548,0.06401
400.46570,0.03289
398.97591,0.03560
397.48612,0.03833
395.99633,0.04761
394.50654,0.06852
393.01675,0.05479
391.52697,0.04108
390.03718,0.06057
388.54739,0.05717
387.05760,0.04930
385.56781,0.04145
384.07802,0.08019
382.58824,0.03192
381.09845,0.01762
379.60866,0.00334
378.11887,0.01774
376.62908,0.03651
375.13929,0.03240
373.64950,0.02830
372.15972,0.05266
370.66993,0.05065
369.18014,0.06507
367.69035,0.07952
366.20056,0.04641
364.71077,0.05685
363.22099,0.06035
361.73120,0.06387
360.24141,0.06568
358.75162,0.06780
357.26183,0.04805
355.77204,0.02832
354.28225,0.06417
352.79247,0.09222
351.30268,0.09911
349.81289,0.10603
348.32310,0.09702
346.83331,0.11124
345.34352,0.09822
343.85374,0.08522
342.36395,0.06065
340.87416,0.04277
339.38437,0.03478
337.89458,0.02682
336.40479,0.03281
334.91501,0.02054
333.42522,0.01193
331.93543,0.00334
330.44564,0.02552
328.95585,0.04686
327.46606,0.06314
325.97627,0.07945
324.48649,0.07852
322.99670,0.02250
321.50691,0.03768
320.01712,0.05289
318.52733,0.04492
317.03754,0.08194
315.54776,0.08779
314.05797,0.09368
312.56818,0.08493
311.07839,0.15426
309.58860,0.13193
308.09881,0.10963
306.60902,0.11289
305.11924,0.06453
303.62945,0.03723
302.13966,0.00995
300.64987,0.02752
299.16008,0.00334
