1778.52000,0.02011
1777.03021,0.02553
1775.54042,0.02352
1774.05063,0.01729
1772.56085,0.02464
1771.07106,0.04160
1769.58127,0.03092
1768.09148,0.02239
1766.60169,0.02373
1765.11190,0.02988
1763.62212,0.02382
1762.13233,0.01592
1760.64254,0.00246
1759.15275,0.01670
1757.66296,0.02191
1756.17317,0.01039
1754.68339,0.01619
1753.19360,0.02440
1751.70381,0.01163
1750.21402,0.01591
1748.72423,0.01382
1747.23444,0.01363
1745.74465,0.01239
1744.25487,0.01730
1742.76508,0.01825
1741.27529,0.01390
1739.78550,0.01037
1738.29571,0.01644
1736.80592,0.01350
1735.31614,0.01936
1733.82635,0.02045
1732.33656,0.00428
1730.84677,0.02059
1729.35698,0.01059
1727.86719,0.02456
1726.37740,0.00742
1724.88762,0.00468
1723.39783,0.01287
1721.90804,0.00246
1720.41825,0.00742
1718.92846,0.01692
1717.43867,0.01954
1715.94889,0.01020
1714.45910,0.01899
1712.96931,0.01609
1711.47952,0.02013
1709.98973,0.00957
1708.49994,0.01340
1707.01016,0.01353
1705.52037,0.01368
1704.03058,0.01998
1702.54079,0.01886
1701.05100,0.03399
1699.56121,0.02599
1698.07142,0.02761
1696.58164,0.03509
1695.09185,0.04022
1693.60206,0.03791
1692.11227,0.04016
1690.62248,0.05493
1689.13269,0.04259
1687.64291,0.04970
1686.15312,0.05284
1684.66333,0.05282
1683.17354,0.05708
1681.68375,0.06535
1680.19396,0.06434
1678.70417,0.07160
1677.21439,0.07463
1675.72460,0.08513
1674.23481,0.07943
1672.74502,0.06764
1671.25523,0.08780
1669.76544,0.10026
1668.27566,0.10025
1666.78587,0.10106
1665.29608,0.11174
1663.80629,0.11127
1662.31650,0.10657
1660.82671,0.11653
1659.33693,0.11055
1657.84714,0.10300
1656.35735,0.09761
1654.86756,0.09729
1653.37777,0.08636
1651.88798,0.11695
1650.39819,0.10474
1648.90841,0.09814
1647.41862,0.08837
1645.92883,0.09273
1644.43904,0.09711
1642.94925,0.08555
1641.45946,0.09637
1639.96968,0.08354
1638.47989,0.09015
1636.99010,0.09093
1635.50031,0.08642
1634.01052,0.09843
1632.52073,0.09397
1631.03094,0.08687
1629.54116,0.07980
1628.05137,0.08207
1626.56158,0.07824
1625.07179,0.07604
1623.58200,0.07652
1622.09221,0.10070
1620.60243,0.09591
1619.11264,0.10524
1617.62285,0.08959
1616.13306,0.08142
1614.64327,0.09642
1613.15348,0.10532
1611.66370,0.10308
1610.17391,0.10032
1608.68412,0.09786
1607.19433,0.11485
1605.70454,0.08956
1604.21475,0.08651
1602.72496,0.08349
1601.23518,0.07690
1599.74539,0.09215
1598.25560,0.07603
1596.76581,0.08281
1595.27602,0.08324
1593.78623,0.07758
1592.29645,0.07992
1590.80666,0.07749
1589.31687,0.05408
1587.82708,0.09587
1586.33729,0.07995
1584.84750,0.07417
1583.35771,0.08757
1581.86793,0.07652
1580.37814,0.07560
1578.88835,0.05476
1577.39856,0.05868
1575.90877,0.06130
1574.41898,0.05223
1572.92920,0.06049
1571.43941,0.05999
1569.94962,0.05885
1568.45983,0.05774
1566.97004,0.04401
1565.48025,0.03404
1563.99047,0.04457
1562.50068,0.04662
1561.01089,0.04337
1559.52110,0.03722
1558.03131,0.04200
1556.54152,0.02872
1555.05173,0.03834
1553.56195,0.04187
1552.07216,0.03798
1550.58237,0.02320
1549.09258,0.01962
1547.60279,0.00942
1546.11300,0.01600
1544.62322,0.01968
1543.13343,0.02525
1541.64364,0.02605
1540.15385,0.01424
1538.66406,0.00246
1537.17427,0.01727
1535.68448,0.01826
1534.19470,0.00439
1532.70491,0.01003
1531.21512,0.01277
1529.72533,0.03204
1528.23554,0.04414
1526.74575,0.02568
1525.25597,0.04182
1523.76618,0.03538
1522.27639,0.04998
1520.78660,0.02736
1519.29681,0.05132
1517.80702,0.04604
1516.31724,0.04797
1514.82745,0.04966
1513.33766,0.04765
1511.84787,0.04567
1510.35808,0.04185
1508.86829,0.05189
1507.37850,0.05158
1505.88872,0.03905
1504.39893,0.04890
1502.90914,0.06516
1501.41935,0.07559
1499.92956,0.07540
1498.43977,0.07391
1496.94999,0.08256
1495.46020,0.08963
1493.97041,0.11030
1492.48062,0.12647
1490.99083,0.12324
1489.50104,0.12430
1488.01125,0.14347
1486.52147,0.16267
1485.03168,0.17178
1483.54189,0.20034
1482.05210,0.22520
1480.56231,0.22055
1479.07252,0.25477
1477.58274,0.27013
1476.09295,0.30387
1474.60316,0.29374
1473.11337,0.31369
1471.62358,0.32702
1470.13379,0.33825
1468.64401,0.36201
1467.15422,0.37595
1465.66443,0.38246
1464.17464,0.38900
1462.68485,0.43707
1461.19506,0.46574
1459.70527,0.49736
1458.21549,0.55109
1456.72570,0.58942
1455.23591,0.65437
1453.74612,0.71297
1452.25633,0.78436
1450.76654,0.82864
1449.27676,0.82745
1447.78697,0.79223
1446.29718,0.77034
1444.80739,0.75100
1443.31760,0.73169
1441.82781,0.66225
1440.33802,0.59790
1438.84824,0.57666
1437.35845,0.54828
1435.86866,0.53960
1434.37887,0.54744
1432.88908,0.60852
1431.39929,0.60311
1429.90951,0.70175
1428.41972,0.79722
1426.92993,0.88926
1425.44014,0.92333
1423.95035,0.94012
1422.46056,0.95695
1420.97078,0.94560
1419.48099,0.96061
1417.99120,1.00465
1416.50141,0.96597
1415.01162,0.90710
1413.52183,0.85410
1412.03204,0.80167
1410.54226,0.76069
1409.05247,0.70804
1407.56268,0.66579
1406.07289,0.54269
1404.58310,0.51698
1403.09331,0.49130
1401.60353,0.44809
1400.11374,0.39239
1398.62395,0.35641
1397.13416,0.32126
1395.64437,0.26085
1394.15458,0.22681
1392.66479,0.21008
1391.17501,0.15002
1389.68522,0.12084
1388.19543,0.08743
1386.70564,0.06695
1385.21585,0.04650
1383.72606,0.04243
1382.23628,0.03120
1380.74649,0.02000
1379.25670,0.00909
1377.76691,0.00246
1376.27712,0.00611
1374.78733,0.00446
1373.29755,0.01614
1371.80776,0.01162
1370.31797,0.01697
1368.82818,0.00970
1367.33839,0.00246
1365.84860,0.01815
1364.35881,0.04079
1362.86903,0.05866
1361.37924,0.06378
1359.88945,0.07771
1358.39966,0.12226
1356.90987,0.12640
1355.42008,0.18005
1353.93030,0.25021
1352.44051,0.27850
1350.95072,0.30682
1349.46093,0.41005
1347.97114,0.46116
1346.48135,0.52747
1344.99156,0.62997
1343.50178,0.65615
1342.01199,0.70151
1340.52220,0.72775
1339.03241,0.81014
1337.54262,0.85610
1336.05283,0.88148
1334.56305,0.90688
1333.07326,0.95000
1331.58347,0.92344
1330.09368,0.91127
1328.60389,0.88848
1327.11410,0.90164
1325.62432,0.86347
1324.13453,0.83145
1322.64474,0.76008
1321.15495,0.73210
1319.66516,0.70787
1318.17537,0.68367
1316.68558,0.63953
1315.19580,0.61830
1313.70601,0.55480
1312.21622,0.51500
1310.72643,0.51886
1309.23664,0.49028
1307.74685,0.43007
1306.25707,0.39809
1304.76728,0.37171
1303.27749,0.34537
1301.78770,0.32889
1300.29791,0.29541
1298.80812,0.23109
1297.31834,0.21336
1295.82855,0.17118
1294.33876,0.13381
1292.84897,0.10791
1291.35918,0.11528
1289.86939,0.10539
1288.37960,0.09553
1286.88982,0.10644
1285.40003,0.10301
1283.91024,0.10386
1282.42045,0.07015
1280.93066,0.05589
1279.44087,0.03686
1277.95109,0.03010
1276.46130,0.04012
1274.97151,0.02769
1273.48172,0.01528
1271.99193,0.02432
1270.50214,0.01316
1269.01235,0.01054
1267.52257,0.01486
1266.03278,0.00644
1264.54299,0.00576
1263.05320,0.02053
1261.56341,0.02376
1260.07362,0.02701
1258.58384,0.02696
1257.09405,0.01550
1255.60426,0.00246
1254.11447,0.01788
1252.62468,0.02933
1251.13489,0.01926
1249.64511,0.03210
1248.15532,0.03777
1246.66553,0.03496
1245.17574,0.03217
1243.68595,0.02302
1242.19616,0.02854
1240.70637,0.02104
1239.21659,0.02899
1237.72680,0.01489
1236.23701,0.03141
1234.74722,0.00246
1233.25743,0.01613
1231.76764,0.02983
1230.27786,0.03437
1228.78807,0.03229
1227.29828,0.02651
1225.80849,0.02953
1224.31870,0.00651
1222.82891,0.00559
1221.33912,0.01667
1219.84934,0.03044
1218.35955,0.04423
1216.86976,0.02639
1215.37997,0.06018
1213.89018,0.07857
1212.40039,0.09087
1210.91061,0.08244
1209.42082,0.07377
1207.93103,0.07643
1206.44124,0.07911
1204.95145,0.05482
1203.46166,0.07046
1201.97188,0.05473
1200.48209,0.06963
1198.99230,0.05661
1197.50251,0.04282
1196.01272,0.03331
1194.52293,0.03354
1193.03314,0.03379
1191.54336,0.02835
1190.05357,0.03304
1188.56378,0.00451
1187.07399,0.02415
1185.58420,0.01136
1184.09441,0.02174
1182.60463,0.02244
1181.11484,0.02316
1179.62505,0.00861
1178.13526,0.02468
1176.64547,0.00246
1175.15568,0.01060
1173.66589,0.02088
1172.17611,0.00246
1170.68632,0.01289
1169.19653,0.02335
1167.70674,0.03410
1166.21695,0.00311
1164.72716,0.02880
1163.23738,0.04335
1161.74759,0.04649
1160.25780,0.07386
1158.76801,0.07265
1157.27822,0.07147
1155.78843,0.07125
1154.29865,0.08143
1152.80886,0.09004
1151.31907,0.09335
1149.82928,0.11238
1148.33949,0.10377
1146.84970,0.09771
1145.35991,0.09168
1143.87013,0.11215
1142.38034,0.14221
1140.89055,0.15209
1139.40076,0.15853
1137.91097,0.15967
1136.42118,0.20687
1134.93140,0.21591
1133.44161,0.22498
1131.95182,0.21665
1130.46203,0.24718
1128.97224,0.23916
1127.48245,0.21521
1125.99266,0.19288
1124.50288,0.24427
1123.01309,0.26003
1121.52330,0.27582
1120.03351,0.26636
1118.54372,0.24096
1117.05393,0.23794
1115.56415,0.22536
1114.07436,0.21813
1112.58457,0.20268
1111.09478,0.18725
1109.60499,0.20483
1108.11520,0.23202
1106.62542,0.24274
1105.13563,0.22822
1103.64584,0.21637
1102.15605,0.21254
1100.66626,0.21085
1099.17647,0.20920
1097.68668,0.20091
1096.19690,0.19292
1094.70711,0.18389
1093.21732,0.19430
1091.72753,0.20714
1090.23774,0.20164
1088.74795,0.19617
1087.25817,0.17583
1085.76838,0.18610
1084.27859,0.18470
1082.78880,0.16922
1081.29901,0.20724
1079.80922,0.17824
1078.31943,0.18159
1076.82965,0.18497
1075.33986,0.16935
1073.85007,0.19632
1072.36028,0.22119
1070.87049,0.26710
1069.38070,0.29069
1067.89092,0.31058
1066.40113,0.33050
1064.91134,0.36879
1063.42155,0.45713
1061.93176,0.53033
1060.44197,0.65411
1058.95219,0.74518
1057.46240,0.78600
1055.97261,0.82684
1054.48282,0.92198
1052.99303,1.00970
1051.50324,0.98438
1050.01345,0.99180
1048.52367,0.95482
1047.03388,0.93742
1045.54409,0.92004
1044.05430,0.90016
1042.56451,0.88669
1041.07472,0.78067
1039.58494,0.67520
1038.09515,0.63866
1036.60536,0.60188
1035.11557,0.56513
1033.62578,0.48690
1032.13599,0.42492
1030.64620,0.35073
1029.15642,0.29545
1027.66663,0.27333
1026.17684,0.25122
1024.68705,0.22476
1023.19726,0.18395
1021.70747,0.20303
1020.21769,0.15508
1018.72790,0.14814
1017.23811,0.14987
1015.74832,0.15162
1014.25853,0.14368
1012.76874,0.13046
1011.27896,0.13641
1009.78917,0.12988
1008.29938,0.11486
1006.80959,0.10134
1005.31980,0.08783
1003.83001,0.05108
1002.34022,0.04627
1000.85044,0.02527
999.36065,0.03647
997.87086,0.03986
996.38107,0.04327
994.89128,0.08355
993.40149,0.11694
991.91171,0.12429
990.42192,0.13511
988.93213,0.16007
987.44234,0.15472
985.95255,0.14939
984.46276,0.13318
982.97297,0.11514
981.48319,0.08674
979.99340,0.06795
978.50361,0.06741
977.01382,0.06689
975.52403,0.03886
974.03424,0.02576
972.54446,0.03848
971.05467,0.02250
969.56488,0.02943
968.07509,0.02733
966.58530,0.02526
965.09551,0.03652
963.60573,0.03583
962.11594,0.01867
960.62615,0.02894
959.13636,0.01569
957.64657,0.00246
956.15678,0.02108
954.66699,0.01498
953.17721,0.05946
951.68742,0.07470
950.19763,0.07772
948.70784,0.08077
947.21805,0.09289
945.72826,0.08243
944.23848,0.09912
942.74869,0.10679
941.25890,0.11715
939.76911,0.12754
938.27932,0.13795
936.78953,0.16514
935.29974,0.19582
933.80996,0.20764
932.32017,0.22081
930.83038,0.22829
929.34059,0.23579
927.85080,0.24052
926.36101,0.26736
924.87123,0.30726
923.38144,0.33682
921.89165,0.38222
920.40186,0.42765
918.91207,0.55119
917.42228,0.65853
915.93250,0.80926
914.44271,0.97651
912.95292,1.10161
911.46313,1.22674
909.97334,1.41056
908.48355,1.59706
906.99376,1.76417
905.50398,1.88554
904.01419,1.90984
902.52440,1.93415
901.03461,2.00000
899.54482,1.93737
898.05503,1.73164
896.56525,1.53764
895.07546,1.42015
893.58567,1.30268
892.09588,1.06938
890.60609,0.86643
889.11630,0.62999
887.62651,0.47711
886.13673,0.40234
884.64694,0.32759
883.15715,0.25513
881.66736,0.17897
880.17757,0.11774
878.68778,0.08872
877.19800,0.05972
875.70821,0.06082
874.21842,0.04465
872.72863,0.04765
871.23884,0.03552
869.74905,0.03379
868.25927,0.03209
866.76948,0.03839
865.27969,0.02982
863.78990,0.03670
862.30011,0.04866
860.81032,0.06158
859.32053,0.07453
857.83075,0.09189
856.34096,0.10262
854.85117,0.11870
853.36138,0.12443
851.87159,0.12540
850.38180,0.12639
848.89202,0.16998
847.40223,0.17208
845.91244,0.17209
844.42265,0.18462
842.93286,0.19718
841.44307,0.21189
839.95329,0.23674
838.46350,0.26054
836.97371,0.29715
835.48392,0.29906
833.99413,0.30099
832.50434,0.26557
831.01455,0.24747
829.52477,0.22727
828.03498,0.20469
826.54519,0.20276
825.05540,0.20086
823.56561,0.16240
822.07582,0.14951
820.58604,0.12839
819.09625,0.12299
817.60646,0.11762
816.11667,0.13037
814.62688,0.11867
813.13709,0.10326
811.64730,0.11343
810.15752,0.11989
808.66773,0.12638
807.17794,0.10868
805.68815,0.12506
804.19836,0.10875
802.70857,0.11227
801.21879,0.11583
799.72900,0.10544
798.23921,0.13126
796.74942,0.11720
795.25963,0.12099
793.76984,0.12480
792.28006,0.13503
790.79027,0.14448
789.30048,0.16486
787.81069,0.19937
786.32090,0.20491
784.83111,0.21047
783.34132,0.25809
781.85154,0.29403
780.36175,0.34277
778.87196,0.36280
777.38217,0.38285
775.89238,0.40586
774.40259,0.44006
772.91281,0.43997
771.42302,0.40945
769.93323,0.37895
768.44344,0.33850
766.95365,0.28211
765.46386,0.24942
763.97407,0.21756
762.48429,0.20621
760.99450,0.19488
759.50471,0.15804
758.01492,0.11430
756.52513,0.09640
755.03534,0.08823
753.54556,0.08009
752.05577,0.07344
750.56598,0.08357
749.07619,0.05755
747.58640,0.05363
746.09661,0.04974
744.60683,0.03630
743.11704,0.03086
741.62725,0.02359
740.13746,0.01301
738.64767,0.00246
737.15788,0.00290
735.66809,0.01214
734.17831,0.00491
732.68852,0.00995
731.19873,0.01501
729.70894,0.02063
728.21915,0.00366
726.72936,0.00924
725.23958,0.01512
723.74979,0.01331
722.26000,0.01152
720.77021,0.01774
719.28042,0.00164
717.79063,0.02496
716.30084,0.02490
714.81106,0.02487
713.32127,0.01315
711.83148,0.01503
710.34169,0.02784
708.85190,0.03349
707.36211,0.03917
705.87233,0.04141
704.38254,0.03331
702.89275,0.02789
701.40296,0.03925
699.91317,0.05065
698.42338,0.06951
696.93360,0.06685
695.44381,0.09189
693.95402,0.10936
692.46423,0.12687
690.97444,0.12644
689.48465,0.11140
687.99486,0.14375
686.50508,0.16188
685.01529,0.18004
683.52550,0.22018
682.03571,0.22549
680.54592,0.24067
679.05613,0.25135
677.56635,0.26205
676.07656,0.25363
674.58677,0.23964
673.09698,0.20573
671.60719,0.21268
670.11740,0.21965
668.62761,0.18502
667.13783,0.16317
665.64804,0.15120
664.15825,0.13926
662.66846,0.11430
661.17867,0.08857
659.68888,0.05568
658.19910,0.05447
656.70931,0.05330
655.21952,0.04629
653.72973,0.05474
652.23994,0.07492
650.75015,0.06932
649.26037,0.06374
647.77058,0.05926
646.28079,0.02713
644.79100,0.04132
643.30121,0.04276
641.81142,0.04423
640.32163,0.02577
638.83185,0.03261
637.34206,0.00542
635.85227,0.00393
634.36248,0.00246
632.87269,0.01406
631.38290,0.01371
629.89312,0.01232
628.40333,0.01535
626.91354,0.01840
625.42375,0.00325
623.93396,0.01553
622.44417,0.01321
620.95438,0.01090
619.46460,0.02034
617.97481,0.03112
616.48502,0.04911
614.99523,0.06873
613.50544,0.08837
612.01565,0.15114
610.52587,0.14209
609.03608,0.17458
607.54629,0.19193
606.05650,0.20930
604.56671,0.23282
603.07692,0.24811
601.58714,0.28511
600.09735,0.32214
598.60756,0.36837
597.11777,0.38457
595.62798,0.38349
594.13819,0.37513
592.64840,0.36679
591.15862,0.32668
589.66883,0.31773
588.17904,0.27821
586.68925,0.24416
585.19946,0.21014
583.70967,0.17282
582.21989,0.12223
580.73010,0.10411
579.24031,0.08602
577.75052,0.06450
576.26073,0.03236
574.77094,0.01488
573.28115,0.02017
571.79137,0.02549
570.30158,0.03762
568.81179,0.05482
567.32200,0.07777
565.83221,0.10075
564.34242,0.13000
562.85264,0.13693
561.36285,0.15559
559.87306,0.14834
558.38327,0.14112
556.89348,0.15320
555.40369,0.17489
553.91391,0.18025
552.42412,0.18563
550.93433,0.20313
549.44454,0.16001
547.95475,0.19087
546.46496,0.19116
544.97517,0.19148
543.48539,0.20113
541.99560,0.25631
540.50581,0.27985
539.01602,0.30341
537.52623,0.33232
536.03644,0.36817
534.54666,0.35802
533.05687,0.38754
531.56708,0.41708
530.07729,0.44745
528.58750,0.48636
527.09771,0.50600
525.60792,0.52567
524.11814,0.59205
522.62835,0.63106
521.13856,0.69935
519.64877,0.72058
518.15898,0.74184
516.66919,0.77323
515.17941,0.79906
513.68962,0.81627
512.19983,0.83350
510.71004,0.77800
509.22025,0.67623
507.73046,0.65590
506.24068,0.58225
504.75089,0.50862
503.26110,0.42477
501.77131,0.31781
500.28152,0.28523
498.79173,0.25268
497.30194,0.20937
495.81216,0.16317
494.32237,0.13375
492.83258,0.10435
491.34279,0.05955
489.85300,0.04138
488.36321,0.04452
486.87343,0.05527
485.38364,0.06604
483.89385,0.08096
482.40406,0.10389
480.91427,0.09651
479.42448,0.08916
477.93469,0.12467
476.44491,0.15435
474.95512,0.17261
473.46533,0.19090
471.97554,0.17836
470.48575,0.18127
468.99596,0.17941
467.50618,0.17280
466.01639,0.16620
464.52660,0.14899
463.03681,0.11425
461.54702,0.10335
460.05723,0.09247
458.56745,0.05514
457.07766,0.05083
455.58787,0.03683
454.09808,0.02286
452.60829,0.00745
451.11850,0.00909
449.62871,0.01036
448.13893,0.01165
446.64914,0.00246
445.15935,0.02805
443.66956,0.04941
442.17977,0.04605
440.68998,0.04271
439.20020,0.03036
437.71041,0.03186
436.22062,0.02820
434.73083,0.02457
433.24104,0.04131
431.75125,0.07431
430.26146,0.05825
428.77168,0.04222
427.28189,0.04097
425.79210,0.04853
424.30231,0.03896
422.81252,0.02941
421.32273,0.04928
419.83295,0.01756
418.34316,0.02711
416.85337,0.03669
415.36358,0.04362
413.87379,0.04872
412.38400,0.04494
410.89422,0.04118
409.40443,0.02507
407.91464,0.04437
406.42485,0.04375
404.93506,0.03344
403.44527,0.02315
401.95548,0.04096
400.46570,0.02553
398.97591,0.03475
397.48612,0.04398
395.99633,0.03396
394.50654,0.03885
393.01675,0.02608
391.52697,0.01334
390.03718,0.02046
388.54739,0.03772
387.05760,0.02721
385.56781,0.01672
384.07802,0.01676
382.58824,0.00246
381.09845,0.00680
379.60866,0.01117
378.11887,0.00000
376.62908,0.03340
375.13929,0.03132
373.64950,0.02926
372.15972,0.04145
370.66993,0.02095
369.18014,0.01814
367.69035,0.01535
366.20056,0.04145
364.71077,0.05268
363.22099,0.04983
361.73120,0.04701
360.24141,0.01282
358.75162,0.01351
357.26183,0.01515
355.77204,0.01682
354.28225,0.05802
352.79247,0.08169
351.30268,0.07692
349.81289,0.07217
348.32310,0.10283
346.83331,0.05583
345.34352,0.04491
343.85374,0.03401
342.36395,0.04322
340.87416,0.04342
339.38437,0.03698
337.89458,0.03057
336.40479,0.03217
334.91501,0.04337
333.42522,0.02680
331.93543,0.01025
330.44564,0.01621
328.95585,0.04932
327.46606,0.04482
325.97627,0.04034
324.48649,0.01261
322.99670,0.02774
321.50691,0.03903
320.01712,0.05035
318.52733,0.04108
317.03754,0.04859
315.54776,0.06119
314.05797,0.07380
312.56818,0.11837
311.07839,0.11880
309.58860,0.09185
308.09881,0.06493
306.60902,0.06890
305.11924,0.01968
303.62945,0.01558
302.13966,0.00415
300.64987,0.00246
299.16008,0.00246
