1778.52000,0.00908
1777.03021,0.00000
1775.54042,0.01562
1774.05063,0.01451
1772.56085,0.00462
1771.07106,0.01326
1769.58127,0.02163
1768.09148,0.00858
1766.60169,0.00583
1765.11190,0.01222
1763.62212,0.00981
1762.13233,0.00978
1760.64254,0.01271
1759.15275,0.01861
1757.66296,0.01747
1756.17317,0.00755
1754.68339,0.00500
1753.19360,0.01128
1751.70381,0.01112
1750.21402,0.01158
1748.72423,0.01147
1747.23444,0.01491
1745.74465,0.01162
1744.25487,0.01570
1742.76508,0.00981
1741.27529,0.01540
1739.78550,0.00927
1738.29571,0.01378
1736.80592,0.01627
1735.31614,0.02171
1733.82635,0.02248
1732.33656,0.02240
1730.84677,0.01704
1729.35698,0.02611
1727.86719,0.01111
1726.37740,0.00583
1724.88762,0.02467
1723.39783,0.02444
1721.90804,0.00984
1720.41825,0.01054
1718.92846,0.01626
1717.43867,0.01025
1715.94889,0.02335
1714.45910,0.02825
1712.96931,0.02230
1711.47952,0.01256
1709.98973,0.01606
1708.49994,0.00636
1707.01016,0.01004
1705.52037,0.01374
1704.03058,0.01144
1702.54079,0.00917
1701.05100,0.02102
1699.56121,0.01909
1698.07142,0.03187
1696.58164,0.01412
1695.09185,0.03723
1693.60206,0.01865
1692.11227,0.01772
1690.62248,0.03268
1689.13269,0.02592
1687.64291,0.03064
1686.15312,0.03539
1684.66333,0.03047
1683.17354,0.03526
1681.68375,0.03714
1680.19396,0.04169
1678.70417,0.03128
1677.21439,0.04146
1675.72460,0.04696
1674.23481,0.05601
1672.74502,0.05099
1671.25523,0.05039
1669.76544,0.06275
1668.27566,0.06573
1666.78587,0.04875
1665.29608,0.05795
1663.80629,0.07392
1662.31650,0.06495
1660.82671,0.07275
1659.33693,0.08557
1657.84714,0.08137
1656.35735,0.06544
1654.86756,0.07628
1653.37777,0.06216
1651.88798,0.07187
1650.39819,0.07543
1648.90841,0.06785
1647.41862,0.06940
1645.92883,0.07318
1644.43904,0.07698
1642.94925,0.07008
1641.45946,0.07437
1639.96968,0.06517
1638.47989,0.07891
1636.99010,0.06683
1635.50031,0.08267
1634.01052,0.07357
1632.52073,0.07565
1631.03094,0.08040
1629.54116,0.07696
1628.05137,0.07559
1626.56158,0.07630
1625.07179,0.06176
1623.58200,0.07221
1622.09221,0.06506
1620.60243,0.09202
1619.11264,0.07934
1617.62285,0.08695
1616.13306,0.08430
1614.64327,0.06846
1613.15348,0.08437
1611.66370,0.08679
1610.17391,0.09012
1608.68412,0.09170
1607.19433,0.09155
1605.70454,0.08408
1604.21475,0.08647
1602.72496,0.08889
1601.23518,0.07826
1599.74539,0.08763
1598.25560,0.08174
1596.76581,0.08117
1595.27602,0.09003
1593.78623,0.08069
1592.29645,0.09018
1590.80666,0.06737
1589.31687,0.06516
1587.82708,0.06561
1586.33729,0.08431
1584.84750,0.08393
1583.35771,0.08621
1581.86793,0.07971
1580.37814,0.08587
1578.88835,0.08059
1577.39856,0.07034
1575.90877,0.07246
1574.41898,0.05374
1572.92920,0.05913
1571.43941,0.06190
1569.94962,0.05604
1568.45983,0.05019
1566.97004,0.04481
1565.48025,0.01977
1563.99047,0.03530
1562.50068,0.02617
1561.01089,0.04174
1559.52110,0.03237
1558.03131,0.03037
1556.54152,0.02515
1555.05173,0.03289
1553.56195,0.01040
1552.07216,0.03405
1550.58237,0.02305
1549.09258,0.00210
1547.60279,0.00349
1546.11300,0.00844
1544.62322,0.00753
1543.13343,0.01634
1541.64364,0.02077
1540.15385,0.02361
1538.66406,0.02647
1537.17427,0.02039
1535.68448,0.01522
1534.19470,0.00743
1532.70491,0.00583
1531.21512,0.01453
1529.72533,0.01474
1528.23554,0.02760
1526.74575,0.03579
1525.25597,0.06280
1523.76618,0.04959
1522.27639,0.03934
1520.78660,0.04381
1519.29681,0.03184
1517.80702,0.04017
1516.31724,0.05176
1514.82745,0.05191
1513.33766,0.05664
1511.84787,0.06139
1510.35808,0.06838
1508.86829,0.05129
1507.37850,0.05421
1505.88872,0.07977
1504.39893,0.05306
1502.90914,0.05194
1501.41935,0.06229
1499.92956,0.07914
1498.43977,0.07750
1496.94999,0.10085
1495.46020,0.10514
1493.97041,0.09798
1492.48062,0.10437
1490.99083,0.11548
1489.50104,0.13279
1488.01125,0.12515
1486.52147,0.11753
1485.03168,0.13873
1483.54189,0.15613
1482.05210,0.15328
1480.56231,0.18366
1479.07252,0.19555
1477.58274,0.23685
1476.09295,0.22499
1474.60316,0.21962
1473.11337,0.22279
1471.62358,0.23510
1470.13379,0.24420
1468.64401,0.24979
1467.15422,0.26951
1465.66443,0.28338
1464.17464,0.29728
1462.68485,0.31913
1461.19506,0.36421
1459.70527,0.40315
1458.21549,0.46385
1456.72570,0.49255
1455.23591,0.54302
1453.74612,0.59498
1452.25633,0.65372
1450.76654,0.70896
1449.27676,0.71957
1447.78697,0.69054
1446.29718,0.69415
1444.80739,0.67824
1443.31760,0.66236
1441.82781,0.60963
1440.33802,0.53371
1438.84824,0.51070
1437.35845,0.49125
1435.86866,0.50295
1434.37887,0.52966
1432.88908,0.55170
1431.39929,0.57905
1429.90951,0.62698
1428.41972,0.71578
1426.92993,0.79138
1425.44014,0.84938
1423.95035,0.88067
1422.46056,0.91198
1420.97078,0.93068
1419.48099,0.93266
1417.99120,0.96698
1416.50141,0.92053
1415.01162,0.89086
1413.52183,0.84564
1412.03204,0.79838
1410.54226,0.72941
1409.05247,0.68749
1407.56268,0.61240
1406.07289,0.54702
1404.58310,0.52457
1403.09331,0.50213
1401.60353,0.46239
1400.11374,0.39300
1398.62395,0.36476
1397.13416,0.32215
1395.64437,0.27046
1394.15458,0.23143
1392.66479,0.20946
1391.17501,0.17458
1389.68522,0.13679
1388.19543,0.12312
1386.70564,0.10227
1385.21585,0.08145
1383.72606,0.05698
1382.23628,0.05456
1380.74649,0.03190
1379.25670,0.03629
1377.76691,0.00809
1376.27712,0.01253
1374.78733,0.00583
1373.29755,0.02191
1371.80776,0.03273
1370.31797,0.03358
1368.82818,0.02917
1367.33839,0.02478
1365.84860,0.03364
1364.35881,0.03606
1362.86903,0.05172
1361.37924,0.06241
1359.88945,0.11249
1358.39966,0.12147
1356.90987,0.15221
1355.42008,0.20001
1353.93030,0.27164
1352.44051,0.29834
1350.95072,0.32506
1349.46093,0.39147
1347.97114,0.47524
1346.48135,0.51525
1344.99156,0.61699
1343.50178,0.67086
1342.01199,0.73445
1340.52220,0.77280
1339.03241,0.81851
1337.54262,0.91097
1336.05283,0.91898
1334.56305,0.92702
1333.07326,0.93699
1331.58347,0.92936
1330.09368,0.90089
1328.60389,0.86628
1327.11410,0.88428
1325.62432,0.88820
1324.13453,0.82752
1322.64474,0.79535
1321.15495,0.74911
1319.66516,0.70598
1318.17537,0.66286
1316.68558,0.65577
1315.19580,0.60433
1313.70601,0.54734
1312.21622,0.50153
1310.72643,0.49101
1309.23664,0.47316
1307.74685,0.42860
1306.25707,0.37613
1304.76728,0.36335
1303.27749,0.35059
1301.78770,0.31377
1300.29791,0.28784
1298.80812,0.23638
1297.31834,0.20109
1295.82855,0.17053
1294.33876,0.12061
1292.84897,0.13093
1291.35918,0.11631
1289.86939,0.10627
1288.37960,0.09625
1286.88982,0.09639
1285.40003,0.09890
1283.91024,0.08968
1282.42045,0.08373
1280.93066,0.07544
1279.44087,0.05602
1277.95109,0.05747
1276.46130,0.04485
1274.97151,0.03887
1273.48172,0.03291
1271.99193,0.04885
1270.50214,0.02752
1269.01235,0.03969
1267.52257,0.03309
1266.03278,0.01947
1264.54299,0.01468
1263.05320,0.02196
1261.56341,0.02985
1260.07362,0.03776
1258.58384,0.04276
1257.09405,0.02370
1255.60426,0.00583
1254.11447,0.02330
1252.62468,0.01377
1251.13489,0.03422
1249.64511,0.02503
1248.15532,0.02673
1246.66553,0.03066
1245.17574,0.03461
1243.68595,0.02522
1242.19616,0.02349
1240.70637,0.03854
1239.21659,0.03803
1237.72680,0.03902
1236.23701,0.03504
1234.74722,0.02697
1233.25743,0.02318
1231.76764,0.01941
1230.27786,0.00583
1228.78807,0.02080
1227.29828,0.03050
1225.80849,0.03670
1224.31870,0.02412
1222.82891,0.02889
1221.33912,0.04868
1219.84934,0.04660
1218.35955,0.04455
1216.86976,0.04413
1215.37997,0.05050
1213.89018,0.07070
1212.40039,0.07065
1210.91061,0.06915
1209.42082,0.07415
1207.93103,0.07446
1206.44124,0.07481
1204.95145,0.07429
1203.46166,0.05176
1201.97188,0.04483
1200.48209,0.04762
1198.99230,0.05160
1197.50251,0.05326
1196.01272,0.05465
1194.52293,0.04784
1193.03314,0.04106
1191.54336,0.03135
1190.05357,0.01933
1188.56378,0.04258
1187.07399,0.03030
1185.58420,0.03597
1184.09441,0.04255
1182.60463,0.03945
1181.11484,0.03638
1179.62505,0.02511
1178.13526,0.03002
1176.64547,0.01057
1175.15568,0.00583
1173.66589,0.02962
1172.17611,0.02228
1170.68632,0.02276
1169.19653,0.02326
1167.70674,0.03716
1166.21695,0.02052
1164.72716,0.01184
1163.23738,0.04431
1161.74759,0.05448
1160.25780,0.05880
1158.76801,0.07415
1157.27822,0.08953
1155.78843,0.07865
1154.29865,0.09922
1152.80886,0.08338
1151.31907,0.09460
1149.82928,0.11995
1148.33949,0.13239
1146.84970,0.13442
1145.35991,0.13648
1143.87013,0.14341
1142.38034,0.15008
1140.89055,0.16557
1139.40076,0.18022
1137.91097,0.19899
1136.42118,0.22984
1134.93140,0.23839
1133.44161,0.24695
1131.95182,0.26289
1130.46203,0.28296
1128.97224,0.27956
1127.48245,0.26589
1125.99266,0.24814
1124.50288,0.26508
1123.01309,0.27455
1121.52330,0.28404
1120.03351,0.31839
1118.54372,0.30193
1117.05393,0.26287
1115.56415,0.27173
1114.07436,0.27033
1112.58457,0.26836
1111.09478,0.26642
1109.60499,0.23776
1108.11520,0.26584
1106.62542,0.29099
1105.13563,0.27798
1103.64584,0.24473
1102.15605,0.25174
1100.66626,0.23983
1099.17647,0.22794
1097.68668,0.25207
1096.19690,0.22922
1094.70711,0.22254
1093.21732,0.20914
1091.72753,0.20662
1090.23774,0.20590
1088.74795,0.20520
1087.25817,0.21186
1085.76838,0.19917
1084.27859,0.19031
1082.78880,0.18324
1081.29901,0.18442
1079.80922,0.17505
1078.31943,0.17804
1076.82965,0.18106
1075.33986,0.20290
1073.85007,0.22095
1072.36028,0.23902
1070.87049,0.23390
1069.38070,0.25437
1067.89092,0.28074
1066.40113,0.30713
1064.91134,0.33707
1063.42155,0.40553
1061.93176,0.47665
1060.44197,0.54250
1058.95219,0.59017
1057.46240,0.64770
1055.97261,0.70525
1054.48282,0.80058
1052.99303,0.86244
1051.50324,0.85676
1050.01345,0.81819
1048.52367,0.84781
1047.03388,0.83486
1045.54409,0.82192
1044.05430,0.80049
1042.56451,0.75764
1041.07472,0.71599
1039.58494,0.64851
1038.09515,0.58017
1036.60536,0.56577
1035.11557,0.55139
1033.62578,0.49605
1032.13599,0.44132
1030.64620,0.39661
1029.15642,0.33664
1027.66663,0.30607
1026.17684,0.27553
1024.68705,0.23209
1023.19726,0.20512
1021.70747,0.17876
1020.21769,0.16095
1018.72790,0.13288
1017.23811,0.13538
1015.74832,0.13791
1014.25853,0.13606
1012.76874,0.12806
1011.27896,0.13536
1009.78917,0.11419
1008.29938,0.08805
1006.80959,0.07824
1005.31980,0.06845
1003.83001,0.04796
1002.34022,0.03514
1000.85044,0.03174
999.36065,0.01250
997.87086,0.02339
996.38107,0.03431
994.89128,0.04129
993.40149,0.06680
991.91171,0.08000
990.42192,0.09469
988.93213,0.09412
987.44234,0.08859
985.95255,0.08308
984.46276,0.08876
982.97297,0.08388
981.48319,0.07903
979.99340,0.06010
978.50361,0.04928
977.01382,0.03848
975.52403,0.03725
974.03424,0.02458
972.54446,0.02399
971.05467,0.01578
969.56488,0.00583
968.07509,0.00585
966.58530,0.00560
965.09551,0.01146
963.60573,0.02527
962.11594,0.01913
960.62615,0.02094
959.13636,0.01808
957.64657,0.01524
956.15678,0.02007
954.66699,0.02726
953.17721,0.04271
951.68742,0.05965
950.19763,0.05796
948.70784,0.05630
947.21805,0.06890
945.72826,0.08006
944.23848,0.09712
942.74869,0.10892
941.25890,0.12133
939.76911,0.12906
938.27932,0.13682
936.78953,0.16546
935.29974,0.16239
933.80996,0.21517
932.32017,0.24299
930.83038,0.23824
929.34059,0.23350
927.85080,0.25465
926.36101,0.26906
924.87123,0.30112
923.38144,0.32792
921.89165,0.36150
920.40186,0.39510
918.91207,0.49336
917.42228,0.62513
915.93250,0.74900
914.44271,0.95515
912.95292,1.07142
911.46313,1.18772
909.97334,1.41069
908.48355,1.63045
906.99376,1.78942
905.50398,1.86557
904.01419,1.92602
902.52440,1.98650
901.03461,1.98134
899.54482,2.00000
898.05503,1.85681
896.56525,1.64813
895.07546,1.50587
893.58567,1.36364
892.09588,1.09510
890.60609,0.84832
889.11630,0.66356
887.62651,0.48470
886.13673,0.41294
884.64694,0.34121
883.15715,0.26466
881.66736,0.17373
880.17757,0.11397
878.68778,0.10065
877.19800,0.08736
875.70821,0.05528
874.21842,0.02118
872.72863,0.02852
871.23884,0.02854
869.74905,0.02594
868.25927,0.02337
866.76948,0.00583
865.27969,0.02415
863.78990,0.02604
862.30011,0.03824
860.81032,0.04371
859.32053,0.04920
857.83075,0.06558
856.34096,0.08345
854.85117,0.07873
853.36138,0.08255
851.87159,0.08875
850.38180,0.09497
848.89202,0.12619
847.40223,0.14362
845.91244,0.13640
844.42265,0.15050
842.93286,0.16462
841.44307,0.17775
839.95329,0.17591
838.46350,0.18585
836.97371,0.19933
835.48392,0.20844
833.99413,0.21757
832.50434,0.20909
831.01455,0.19594
829.52477,0.17282
828.03498,0.12799
826.54519,0.13151
825.05540,0.13505
823.56561,0.10910
822.07582,0.08727
820.58604,0.10367
819.09625,0.10349
817.60646,0.10333
816.11667,0.08983
814.62688,0.07841
813.13709,0.06966
811.64730,0.07298
810.15752,0.07823
808.66773,0.08351
807.17794,0.08514
805.68815,0.08326
804.19836,0.08788
802.70857,0.09795
801.21879,0.10805
799.72900,0.09070
798.23921,0.07337
796.74942,0.08868
795.25963,0.08742
793.76984,0.08617
792.28006,0.09686
790.79027,0.11637
789.30048,0.11741
787.81069,0.14608
786.32090,0.16229
784.83111,0.17853
783.34132,0.18436
781.85154,0.22723
780.36175,0.25779
778.87196,0.27647
777.38217,0.29517
775.89238,0.30347
774.40259,0.33295
772.91281,0.31104
771.42302,0.30017
769.93323,0.28932
768.44344,0.28305
766.95365,0.21835
765.46386,0.19979
763.97407,0.16216
762.48429,0.15084
760.99450,0.13955
759.50471,0.10992
758.01492,0.10059
756.52513,0.08717
755.03534,0.08729
753.54556,0.08743
752.05577,0.05851
750.56598,0.05399
749.07619,0.06743
747.58640,0.05738
746.09661,0.04736
744.60683,0.00739
743.11704,0.01857
741.62725,0.02684
740.13746,0.01632
738.64767,0.00583
737.15788,0.01904
735.66809,0.01053
734.17831,0.01291
732.68852,0.01458
731.19873,0.01628
729.70894,0.00463
728.21915,0.01333
726.72936,0.01999
725.23958,0.00787
723.74979,0.01128
722.26000,0.01471
720.77021,0.00583
719.28042,0.00658
717.79063,0.01851
716.30084,0.01240
714.81106,0.00631
713.32127,0.01949
711.83148,0.00772
710.34169,0.01508
708.85190,0.02333
707.36211,0.03162
705.87233,0.03052
704.38254,0.02974
702.89275,0.03281
701.40296,0.04074
699.91317,0.04871
698.42338,0.06007
696.93360,0.07968
695.44381,0.10255
693.95402,0.11634
692.46423,0.13014
690.97444,0.12606
689.48465,0.14050
687.99486,0.17172
686.50508,0.17593
685.01529,0.18016
683.52550,0.21468
682.03571,0.21926
680.54592,0.23414
679.05613,0.26315
677.56635,0.29218
676.07656,0.29421
674.58677,0.23897
673.09698,0.21519
671.60719,0.21201
670.11740,0.20884
668.62761,0.19072
667.13783,0.17761
665.64804,0.15381
664.15825,0.13003
662.66846,0.11053
661.17867,0.11045
659.68888,0.06544
658.19910,0.05380
656.70931,0.04219
655.21952,0.03809
653.72973,0.04694
652.23994,0.05611
650.75015,0.05840
649.26037,0.06071
647.77058,0.04674
646.28079,0.03926
644.79100,0.06206
643.30121,0.04361
641.81142,0.02519
640.32163,0.03249
638.83185,0.03071
637.34206,0.02690
635.85227,0.01635
634.36248,0.00583
632.87269,0.01263
631.38290,0.03326
629.89312,0.02512
628.40333,0.02670
626.91354,0.02831
625.42375,0.01554
623.93396,0.02042
622.44417,0.02092
620.95438,0.02145
619.46460,0.02552
617.97481,0.03227
616.48502,0.04726
614.99523,0.06992
613.50544,0.09259
612.01565,0.13527
610.52587,0.15771
609.03608,0.18545
607.54629,0.20573
606.05650,0.22603
604.56671,0.27735
603.07692,0.31695
601.58714,0.31646
600.09735,0.31600
598.60756,0.36888
597.11777,0.40211
595.62798,0.37748
594.13819,0.37051
592.64840,0.36356
591.15862,0.35692
589.66883,0.27305
588.17904,0.24825
586.68925,0.24624
585.19946,0.24426
583.70967,0.18604
582.21989,0.12696
580.73010,0.10199
579.24031,0.07704
577.75052,0.08031
576.26073,0.06570
574.77094,0.03759
573.28115,0.03271
571.79137,0.02786
570.30158,0.00687
568.81179,0.05906
567.32200,0.06662
565.83221,0.07420
564.34242,0.09032
562.85264,0.10941
561.36285,0.12000
559.87306,0.12621
558.38327,0.13245
556.89348,0.13811
555.40369,0.14733
553.91391,0.14203
552.42412,0.13676
550.93433,0.13694
549.44454,0.15624
547.95475,0.14884
546.46496,0.17201
544.97517,0.19520
543.48539,0.21871
541.99560,0.23256
540.50581,0.25112
539.01602,0.26971
537.52623,0.31006
536.03644,0.34721
534.54666,0.38497
533.05687,0.39866
531.56708,0.41238
530.07729,0.47018
528.58750,0.54211
527.09771,0.57059
525.60792,0.59909
524.11814,0.67521
522.62835,0.68642
521.13856,0.74526
519.64877,0.78267
518.15898,0.82010
516.66919,0.86167
515.17941,0.86507
513.68962,0.87393
512.19983,0.88282
510.71004,0.83341
509.22025,0.77904
507.73046,0.69531
506.24068,0.65170
504.75089,0.60812
503.26110,0.47863
501.77131,0.37325
500.28152,0.33092
498.79173,0.28861
497.30194,0.19800
495.81216,0.17057
494.32237,0.16814
492.83258,0.16573
491.34279,0.11282
489.85300,0.06786
488.36321,0.05994
486.87343,0.05881
485.38364,0.05769
483.89385,0.08628
482.40406,0.09080
480.91427,0.09769
479.42448,0.10461
477.93469,0.13387
476.44491,0.13349
474.95512,0.14503
473.46533,0.15660
471.97554,0.17451
470.48575,0.15395
468.99596,0.16074
467.50618,0.15521
466.01639,0.14971
464.52660,0.11104
463.03681,0.09472
461.54702,0.09428
460.05723,0.09387
458.56745,0.04178
457.07766,0.03290
455.58787,0.03976
454.09808,0.04664
452.60829,0.03548
451.11850,0.00583
449.62871,0.01035
448.13893,0.01489
446.64914,0.01226
445.15935,0.01905
443.66956,0.03468
442.17977,0.03388
440.68998,0.03310
439.20020,0.03617
437.71041,0.03397
436.22062,0.02916
434.73083,0.02437
433.24104,0.01108
431.75125,0.04129
430.26146,0.03746
428.77168,0.03364
427.28189,0.04043
425.79210,0.02785
424.30231,0.02645
422.81252,0.02509
421.32273,0.03490
419.83295,0.01214
418.34316,0.02391
416.85337,0.03571
415.36358,0.03094
413.87379,0.05028
412.38400,0.04790
410.89422,0.04555
409.40443,0.03118
407.91464,0.02741
406.42485,0.02219
404.93506,0.02302
403.44527,0.02387
401.95548,0.05339
400.46570,0.04621
398.97591,0.03098
397.48612,0.01577
395.99633,0.03128
394.50654,0.01980
393.01675,0.02082
391.52697,0.01968
390.03718,0.01636
388.54739,0.05478
387.05760,0.05224
385.56781,0.04973
384.07802,0.01918
382.58824,0.02244
381.09845,0.01413
379.60866,0.00583
378.11887,0.02888
376.62908,0.03316
375.13929,0.04436
373.64950,0.05558
372.15972,0.06169
370.66993,0.05519
369.18014,0.03916
367.69035,0.02316
366.20056,0.06866
364.71077,0.08156
363.22099,0.07334
361.73120,0.06515
360.24141,0.05433
358.75162,0.05147
357.26183,0.04261
355.77204,0.03377
354.28225,0.06183
352.79247,0.10166
351.30268,0.09099
349.81289,0.08034
348.32310,0.07971
346.83331,0.09819
345.34352,0.08056
343.85374,0.06296
342.36395,0.07035
340.87416,0.02018
339.38437,0.01851
337.89458,0.01687
336.40479,0.01701
334.91501,0.03422
333.42522,0.02001
331.93543,0.00583
330.44564,0.00792
328.95585,0.03707
327.46606,0.05389
325.97627,0.07075
324.48649,0.05266
322.99670,0.03872
321.50691,0.03669
320.01712,0.03469
318.52733,0.05959
317.03754,0.07600
315.54776,0.09361
314.05797,0.11124
312.56818,0.13477
311.07839,0.13953
309.58860,0.12565
308.09881,0.11179
306.60902,0.10105
305.11924,0.09150
303.62945,0.07082
302.13966,0.05015
300.64987,0.00601
299.16008,0.00583
