1778.52000,0.00558
1777.03021,0.00000
1775.54042,0.01228
1774.05063,0.02719
1772.56085,0.02763
1771.07106,0.04046
1769.58127,0.03690
1768.09148,0.01981
1766.60169,0.03247
1765.11190,0.02328
1763.62212,0.01387
1762.13233,0.01043
1760.64254,0.02510
1759.15275,0.03194
1757.66296,0.03000
1756.17317,0.01239
1754.68339,0.00551
1753.19360,0.02244
1751.70381,0.02464
1750.21402,0.02331
1748.72423,0.01034
1747.23444,0.01381
1745.74465,0.02015
1744.25487,0.02296
1742.76508,0.02650
1741.27529,0.01080
1739.78550,0.02652
1738.29571,0.01325
1736.80592,0.04707
1735.31614,0.03382
1733.82635,0.02227
1732.33656,0.00241
1730.84677,0.00499
1729.35698,0.01497
1727.86719,0.03806
1726.37740,0.04142
1724.88762,0.03364
1723.39783,0.02493
1721.90804,0.01910
1720.41825,0.01043
1718.92846,0.02294
1717.43867,0.02572
1715.94889,0.05135
1714.45910,0.05156
1712.96931,0.04752
1711.47952,0.02780
1709.98973,0.01596
1708.49994,0.01674
1707.01016,0.01803
1705.52037,0.01934
1704.03058,0.03898
1702.54079,0.04225
1701.05100,0.03578
1699.56121,0.04171
1698.07142,0.03624
1696.58164,0.02700
1695.09185,0.02491
1693.60206,0.04854
1692.11227,0.04483
1690.62248,0.04377
1689.13269,0.03227
1687.64291,0.03245
1686.15312,0.02457
1684.66333,0.02907
1683.17354,0.02909
1681.68375,0.04482
1680.19396,0.04131
1678.70417,0.04402
1677.21439,0.04151
1675.72460,0.04926
1674.23481,0.03610
1672.74502,0.04723
1671.25523,0.04839
1669.76544,0.05147
1668.27566,0.06790
1666.78587,0.04179
1665.29608,0.05327
1663.80629,0.04956
1662.31650,0.05396
1660.82671,0.06100
1659.33693,0.06402
1657.84714,0.06897
1656.35735,0.06087
1654.86756,0.04945
1653.37777,0.05210
1651.88798,0.06927
1650.39819,0.07720
1648.90841,0.07801
1647.41862,0.07671
1645.92883,0.06890
1644.43904,0.06110
1642.94925,0.08437
1641.45946,0.08008
1639.96968,0.05987
1638.47989,0.07418
1636.99010,0.05807
1635.50031,0.06410
1634.01052,0.05993
1632.52073,0.04912
1631.03094,0.06640
1629.54116,0.08751
1628.05137,0.10556
1626.56158,0.09152
1625.07179,0.07941
1623.58200,0.06732
1622.09221,0.05288
1620.60243,0.04513
1619.11264,0.06141
1617.62285,0.06227
1616.13306,0.07433
1614.64327,0.09687
1613.15348,0.09471
1611.66370,0.09804
1610.17391,0.09307
1608.68412,0.08622
1607.19433,0.09676
1605.70454,0.09068
1604.21475,0.08997
1602.72496,0.08929
1601.23518,0.07900
1599.74539,0.06730
1598.25560,0.06705
1596.76581,0.06896
1595.27602,0.10205
1593.78623,0.08071
1592.29645,0.06557
1590.80666,0.06591
1589.31687,0.04464
1587.82708,0.05098
1586.33729,0.06900
1584.84750,0.07562
1583.35771,0.09060
1581.86793,0.08395
1580.37814,0.06164
1578.88835,0.05980
1577.39856,0.05942
1575.90877,0.05668
1574.41898,0.06562
1572.92920,0.06340
1571.43941,0.05265
1569.94962,0.04715
1568.45983,0.04168
1566.97004,0.04147
1565.48025,0.03914
1563.99047,0.03993
1562.50068,0.04502
1561.01089,0.02064
1559.52110,0.02650
1558.03131,0.02191
1556.54152,0.02710
1555.05173,0.02590
1553.56195,0.03018
1552.07216,0.03473
1550.58237,0.01529
1549.09258,0.01679
1547.60279,0.01000
1546.11300,0.01584
1544.62322,0.01314
1543.13343,0.02473
1541.64364,0.01209
1540.15385,0.01125
1538.66406,0.01043
1537.17427,0.02311
1535.68448,0.01155
1534.19470,0.01230
1532.70491,0.01403
1531.21512,0.02577
1529.72533,0.03896
1528.23554,0.04195
1526.74575,0.03473
1525.25597,0.02588
1523.76618,0.02466
1522.27639,0.03298
1520.78660,0.02729
1519.29681,0.03209
1517.80702,0.05190
1516.31724,0.04367
1514.82745,0.04474
1513.33766,0.03799
1511.84787,0.03126
1510.35808,0.03525
1508.86829,0.05663
1507.37850,0.04903
1505.88872,0.05310
1504.39893,0.04031
1502.90914,0.04966
1501.41935,0.06022
1499.92956,0.06391
1498.43977,0.07358
1496.94999,0.07185
1495.46020,0.06777
1493.97041,0.07560
1492.48062,0.09202
1490.99083,0.09515
1489.50104,0.09830
1488.01125,0.10028
1486.52147,0.10229
1485.03168,0.12454
1483.54189,0.14325
1482.05210,0.15746
1480.56231,0.15196
1479.07252,0.18715
1477.58274,0.17956
1476.09295,0.19482
1474.60316,0.18752
1473.11337,0.20426
1471.62358,0.19557
1470.13379,0.21307
1468.64401,0.18470
1467.15422,0.19036
1465.66443,0.19842
1464.17464,0.20651
1462.68485,0.24316
1461.19506,0.28934
1459.70527,0.32866
1458.21549,0.34921
1456.72570,0.41997
1455.23591,0.47767
1453.74612,0.53444
1452.25633,0.59409
1450.76654,0.59431
1449.27676,0.60502
1447.78697,0.58746
1446.29718,0.58157
1444.80739,0.56155
1443.31760,0.54156
1441.82781,0.50674
1440.33802,0.48882
1438.84824,0.45546
1437.35845,0.43093
1435.86866,0.42426
1434.37887,0.43213
1432.88908,0.46095
1431.39929,0.51357
1429.90951,0.57787
1428.41972,0.64767
1426.92993,0.70512
1425.44014,0.74214
1423.95035,0.76968
1422.46056,0.79724
1420.97078,0.82935
1419.48099,0.85291
1417.99120,0.87603
1416.50141,0.83187
1415.01162,0.80985
1413.52183,0.79903
1412.03204,0.72806
1410.54226,0.69089
1409.05247,0.62926
1407.56268,0.57406
1406.07289,0.49939
1404.58310,0.49003
1403.09331,0.48069
1401.60353,0.43344
1400.11374,0.38741
1398.62395,0.32856
1397.13416,0.28733
1395.64437,0.23043
1394.15458,0.23753
1392.66479,0.18258
1391.17501,0.11576
1389.68522,0.05944
1388.19543,0.07187
1386.70564,0.07397
1385.21585,0.07611
1383.72606,0.05793
1382.23628,0.03906
1380.74649,0.01808
1379.25670,0.03066
1377.76691,0.02281
1376.27712,0.02330
1374.78733,0.03358
1373.29755,0.01700
1371.80776,0.01043
1370.31797,0.01349
1368.82818,0.01432
1367.33839,0.01517
1365.84860,0.03519
1364.35881,0.04002
1362.86903,0.04391
1361.37924,0.04784
1359.88945,0.06510
1358.39966,0.08382
1356.90987,0.10374
1355.42008,0.14510
1353.93030,0.20837
1352.44051,0.22920
1350.95072,0.25006
1349.46093,0.31126
1347.97114,0.36510
1346.48135,0.42207
1344.99156,0.46859
1343.50178,0.50991
1342.01199,0.62165
1340.52220,0.66063
1339.03241,0.72985
1337.54262,0.77340
1336.05283,0.79177
1334.56305,0.81017
1333.07326,0.80385
1331.58347,0.77782
1330.09368,0.80604
1328.60389,0.81027
1327.11410,0.82094
1325.62432,0.74887
1324.13453,0.70346
1322.64474,0.64333
1321.15495,0.63983
1319.66516,0.61554
1318.17537,0.59128
1316.68558,0.53220
1315.19580,0.50525
1313.70601,0.49212
1312.21622,0.46546
1310.72643,0.44477
1309.23664,0.40270
1307.74685,0.34924
1306.25707,0.31602
1304.76728,0.30517
1303.27749,0.29436
1301.78770,0.26549
1300.29791,0.21215
1298.80812,0.18571
1297.31834,0.15573
1295.82855,0.13243
1294.33876,0.11938
1292.84897,0.11254
1291.35918,0.11381
1289.86939,0.10273
1288.37960,0.09168
1286.88982,0.07210
1285.40003,0.07394
1283.91024,0.06487
1282.42045,0.05844
1280.93066,0.04609
1279.44087,0.04969
1277.95109,0.04500
1276.46130,0.03890
1274.97151,0.03010
1273.48172,0.02132
1271.99193,0.02005
1270.50214,0.03023
1269.01235,0.02401
1267.52257,0.02615
1266.03278,0.02522
1264.54299,0.05167
1263.05320,0.06529
1261.56341,0.05183
1260.07362,0.03840
1258.58384,0.01999
1257.09405,0.03419
1255.60426,0.01346
1254.11447,0.03009
1252.62468,0.01867
1251.13489,0.02560
1249.64511,0.01043
1248.15532,0.02402
1246.66553,0.02538
1245.17574,0.02676
1243.68595,0.02330
1242.19616,0.03127
1240.70637,0.03142
1239.21659,0.03326
1237.72680,0.03275
1236.23701,0.01799
1234.74722,0.03131
1233.25743,0.03194
1231.76764,0.03260
1230.27786,0.03673
1228.78807,0.04183
1227.29828,0.04386
1225.80849,0.03023
1224.31870,0.01043
1222.82891,0.04595
1221.33912,0.03108
1219.84934,0.04275
1218.35955,0.05444
1216.86976,0.03773
1215.37997,0.05815
1213.89018,0.06504
1212.40039,0.07505
1210.91061,0.07319
1209.42082,0.07397
1207.93103,0.06681
1206.44124,0.05967
1204.95145,0.04007
1203.46166,0.02692
1201.97188,0.01141
1200.48209,0.01043
1198.99230,0.02225
1197.50251,0.02482
1196.01272,0.03621
1194.52293,0.04429
1193.03314,0.05240
1191.54336,0.05221
1190.05357,0.05038
1188.56378,0.05048
1187.07399,0.04394
1185.58420,0.03814
1184.09441,0.02904
1182.60463,0.02638
1181.11484,0.02375
1179.62505,0.01043
1178.13526,0.02373
1176.64547,0.02444
1175.15568,0.03707
1173.66589,0.04758
1172.17611,0.06264
1170.68632,0.05037
1169.19653,0.03813
1167.70674,0.03400
1166.21695,0.05319
1164.72716,0.03888
1163.23738,0.04124
1161.74759,0.05314
1160.25780,0.05793
1158.76801,0.07202
1157.27822,0.08613
1155.78843,0.08267
1154.29865,0.10064
1152.80886,0.10888
1151.31907,0.11810
1149.82928,0.11735
1148.33949,0.11829
1146.84970,0.12687
1145.35991,0.13547
1143.87013,0.16716
1142.38034,0.16511
1140.89055,0.18544
1139.40076,0.16941
1137.91097,0.19311
1136.42118,0.20091
1134.93140,0.20719
1133.44161,0.21349
1131.95182,0.22707
1130.46203,0.23021
1128.97224,0.25501
1127.48245,0.23798
1125.99266,0.27045
1124.50288,0.27178
1123.01309,0.27659
1121.52330,0.28142
1120.03351,0.25215
1118.54372,0.23646
1117.05393,0.24053
1115.56415,0.23441
1114.07436,0.22592
1112.58457,0.22436
1111.09478,0.22283
1109.60499,0.22464
1108.11520,0.26739
1106.62542,0.25594
1105.13563,0.24903
1103.64584,0.23620
1102.15605,0.25241
1100.66626,0.23285
1099.17647,0.21332
1097.68668,0.19940
1096.19690,0.20762
1094.70711,0.20469
1093.21732,0.21510
1091.72753,0.20841
1090.23774,0.20793
1088.74795,0.20748
1087.25817,0.17970
1085.76838,0.16193
1084.27859,0.16940
1082.78880,0.17404
1081.29901,0.14826
1079.80922,0.16269
1078.31943,0.16003
1076.82965,0.15739
1075.33986,0.19379
1073.85007,0.20356
1072.36028,0.21527
1070.87049,0.22343
1069.38070,0.23566
1067.89092,0.23579
1066.40113,0.23594
1064.91134,0.27750
1063.42155,0.35570
1061.93176,0.42775
1060.44197,0.49102
1058.95219,0.57905
1057.46240,0.63155
1055.97261,0.68408
1054.48282,0.77242
1052.99303,0.80751
1051.50324,0.80006
1050.01345,0.79620
1048.52367,0.81686
1047.03388,0.82006
1045.54409,0.82329
1044.05430,0.81382
1042.56451,0.70449
1041.07472,0.59519
1039.58494,0.57485
1038.09515,0.48795
1036.60536,0.47456
1035.11557,0.46119
1033.62578,0.45094
1032.13599,0.41765
1030.64620,0.36702
1029.15642,0.31427
1027.66663,0.29794
1026.17684,0.28163
1024.68705,0.24632
1023.19726,0.19866
1021.70747,0.17910
1020.21769,0.13767
1018.72790,0.13171
1017.23811,0.11864
1015.74832,0.10560
1014.25853,0.09566
1012.76874,0.08623
1011.27896,0.07659
1009.78917,0.08552
1008.29938,0.07307
1006.80959,0.06338
1005.31980,0.05372
1003.83001,0.03492
1002.34022,0.01972
1000.85044,0.01215
999.36065,0.03481
997.87086,0.04976
996.38107,0.06474
994.89128,0.07106
993.40149,0.10357
991.91171,0.10447
990.42192,0.12680
988.93213,0.11562
987.44234,0.10923
985.95255,0.10285
984.46276,0.07320
982.97297,0.08257
981.48319,0.07128
979.99340,0.02909
978.50361,0.01975
977.01382,0.01043
975.52403,0.01551
974.03424,0.01633
972.54446,0.02336
971.05467,0.01043
969.56488,0.01549
968.07509,0.02248
966.58530,0.02949
965.09551,0.01655
963.60573,0.01814
962.11594,0.01547
960.62615,0.00950
959.13636,0.01370
957.64657,0.01793
956.15678,0.02717
954.66699,0.05142
953.17721,0.04978
951.68742,0.04815
950.19763,0.05488
948.70784,0.06163
947.21805,0.07363
945.72826,0.08210
944.23848,0.07798
942.74869,0.10195
941.25890,0.12880
939.76911,0.14545
938.27932,0.16212
936.78953,0.17668
935.29974,0.20458
933.80996,0.19826
932.32017,0.20100
930.83038,0.22053
929.34059,0.24008
927.85080,0.24503
926.36101,0.26523
924.87123,0.27879
923.38144,0.32758
921.89165,0.36747
920.40186,0.40739
918.91207,0.48812
917.42228,0.60121
915.93250,0.71980
914.44271,0.94734
912.95292,1.05231
911.46313,1.15730
909.97334,1.32426
908.48355,1.52741
906.99376,1.74318
905.50398,1.95112
904.01419,1.97407
902.52440,1.99703
901.03461,1.99743
899.54482,2.00000
898.05503,1.88130
896.56525,1.67178
895.07546,1.53232
893.58567,1.39288
892.09588,1.14252
890.60609,0.87269
889.11630,0.67827
887.62651,0.48911
886.13673,0.43244
884.64694,0.37580
883.15715,0.24569
881.66736,0.17839
880.17757,0.13300
878.68778,0.12092
877.19800,0.10887
875.70821,0.08971
874.21842,0.05631
872.72863,0.05004
871.23884,0.03500
869.74905,0.02687
868.25927,0.01878
866.76948,0.03401
865.27969,0.04308
863.78990,0.05765
862.30011,0.02682
860.81032,0.03609
859.32053,0.04538
857.83075,0.07337
856.34096,0.10542
854.85117,0.08589
853.36138,0.09849
851.87159,0.09970
850.38180,0.10094
848.89202,0.12693
847.40223,0.15889
845.91244,0.17399
844.42265,0.16997
842.93286,0.16598
841.44307,0.17711
839.95329,0.19207
838.46350,0.21206
836.97371,0.22255
835.48392,0.20881
833.99413,0.19509
832.50434,0.19305
831.01455,0.20459
829.52477,0.18952
828.03498,0.17923
826.54519,0.16612
825.05540,0.15302
823.56561,0.15612
822.07582,0.14142
820.58604,0.11365
819.09625,0.11481
817.60646,0.11598
816.11667,0.10851
814.62688,0.11390
813.13709,0.11908
811.64730,0.09978
810.15752,0.09882
808.66773,0.09789
807.17794,0.13075
805.68815,0.13058
804.19836,0.11760
802.70857,0.11724
801.21879,0.11690
799.72900,0.12254
798.23921,0.10941
796.74942,0.10320
795.25963,0.10725
793.76984,0.11132
792.28006,0.12944
790.79027,0.12357
789.30048,0.13532
787.81069,0.14924
786.32090,0.16782
784.83111,0.18643
783.34132,0.22729
781.85154,0.23298
780.36175,0.24821
778.87196,0.25538
777.38217,0.26257
775.89238,0.31355
774.40259,0.30486
772.91281,0.30547
771.42302,0.29837
769.93323,0.29130
768.44344,0.25939
766.95365,0.21896
765.46386,0.18710
763.97407,0.15361
762.48429,0.14476
760.99450,0.13593
759.50471,0.11131
758.01492,0.09623
756.52513,0.07214
755.03534,0.06602
753.54556,0.05993
752.05577,0.05422
750.56598,0.06947
749.07619,0.03551
747.58640,0.02690
746.09661,0.01832
744.60683,0.03437
743.11704,0.02477
741.62725,0.01043
740.13746,0.01578
738.64767,0.02116
737.15788,0.02893
735.66809,0.02651
734.17831,0.01364
732.68852,0.02340
731.19873,0.03317
729.70894,0.03489
728.21915,0.01261
726.72936,0.01482
725.23958,0.03323
723.74979,0.02182
722.26000,0.01043
720.77021,0.02562
719.28042,0.03228
717.79063,0.02516
716.30084,0.01902
714.81106,0.01291
713.32127,0.01538
711.83148,0.04808
710.34169,0.03990
708.85190,0.04636
707.36211,0.05286
705.87233,0.03262
704.38254,0.02192
702.89275,0.03883
701.40296,0.05375
699.91317,0.06869
698.42338,0.10042
696.93360,0.08794
695.44381,0.12994
693.95402,0.13166
692.46423,0.13341
690.97444,0.12554
689.48465,0.13530
687.99486,0.14770
686.50508,0.17511
685.01529,0.20255
683.52550,0.22786
682.03571,0.23489
680.54592,0.25312
679.05613,0.25782
677.56635,0.26255
676.07656,0.27942
674.58677,0.24496
673.09698,0.24286
671.60719,0.22402
670.11740,0.20520
668.62761,0.17725
667.13783,0.16360
665.64804,0.15520
664.15825,0.14683
662.66846,0.10590
661.17867,0.06808
659.68888,0.06002
658.19910,0.05222
656.70931,0.04445
655.21952,0.06310
653.72973,0.07035
652.23994,0.06360
650.75015,0.05902
649.26037,0.05446
647.77058,0.06372
646.28079,0.04113
644.79100,0.05377
643.30121,0.04503
641.81142,0.03631
640.32163,0.06281
638.83185,0.05319
637.34206,0.03123
635.85227,0.02558
634.36248,0.01996
632.87269,0.01043
631.38290,0.02505
629.89312,0.02543
628.40333,0.02357
626.91354,0.02173
625.42375,0.03835
623.93396,0.03098
622.44417,0.04277
620.95438,0.05459
619.46460,0.05062
617.97481,0.04929
616.48502,0.06225
614.99523,0.08641
613.50544,0.11060
612.01565,0.13291
610.52587,0.14169
609.03608,0.17143
607.54629,0.18739
606.05650,0.20338
604.56671,0.24531
603.07692,0.28846
601.58714,0.28680
600.09735,0.28517
598.60756,0.29581
597.11777,0.32217
595.62798,0.31122
594.13819,0.29922
592.64840,0.28725
591.15862,0.28208
589.66883,0.25410
588.17904,0.25041
586.68925,0.21748
585.19946,0.18459
583.70967,0.14862
582.21989,0.10888
580.73010,0.08854
579.24031,0.06822
577.75052,0.05091
576.26073,0.03932
574.77094,0.03561
573.28115,0.03299
571.79137,0.03040
570.30158,0.03461
568.81179,0.04408
567.32200,0.04608
565.83221,0.04810
564.34242,0.05978
562.85264,0.09765
561.36285,0.13768
559.87306,0.13421
558.38327,0.13077
556.89348,0.13044
555.40369,0.14536
553.91391,0.13200
552.42412,0.11867
550.93433,0.10298
549.44454,0.09470
547.95475,0.13090
546.46496,0.13301
544.97517,0.13514
543.48539,0.17094
541.99560,0.18466
540.50581,0.21159
539.01602,0.23856
537.52623,0.24759
536.03644,0.31491
534.54666,0.32161
533.05687,0.34463
531.56708,0.36767
530.07729,0.39109
528.58750,0.45140
527.09771,0.46012
525.60792,0.46888
524.11814,0.57421
522.62835,0.58848
521.13856,0.65747
519.64877,0.68095
518.15898,0.70444
516.66919,0.73998
515.17941,0.75770
513.68962,0.76831
512.19983,0.77895
510.71004,0.72659
509.22025,0.68614
507.73046,0.57176
506.24068,0.52696
504.75089,0.48219
503.26110,0.41116
501.77131,0.32493
500.28152,0.28345
498.79173,0.24198
497.30194,0.15964
495.81216,0.12655
494.32237,0.10038
492.83258,0.07423
491.34279,0.07903
489.85300,0.07243
488.36321,0.09987
486.87343,0.08381
485.38364,0.06778
483.89385,0.03417
482.40406,0.03032
480.91427,0.05229
479.42448,0.07429
477.93469,0.09381
476.44491,0.12477
474.95512,0.12996
473.46533,0.13517
471.97554,0.13577
470.48575,0.16540
468.99596,0.16224
467.50618,0.13949
466.01639,0.11676
464.52660,0.09155
463.03681,0.08041
461.54702,0.07071
460.05723,0.06104
458.56745,0.05710
457.07766,0.03796
455.58787,0.03788
454.09808,0.03782
452.60829,0.01043
451.11850,0.01854
449.62871,0.01584
448.13893,0.01318
446.64914,0.02159
445.15935,0.03931
443.66956,0.04444
442.17977,0.05590
440.68998,0.06739
439.20020,0.04406
437.71041,0.06427
436.22062,0.06156
434.73083,0.05888
433.24104,0.06799
431.75125,0.05287
430.26146,0.05311
428.77168,0.05338
427.28189,0.07257
425.79210,0.08395
424.30231,0.07157
422.81252,0.05921
421.32273,0.06043
419.83295,0.05882
418.34316,0.05391
416.85337,0.04902
415.36358,0.03702
413.87379,0.05264
412.38400,0.03712
410.89422,0.02163
409.40443,0.04992
407.91464,0.05398
406.42485,0.08208
404.93506,0.06038
403.44527,0.03871
401.95548,0.07212
400.46570,0.04206
398.97591,0.04115
397.48612,0.04027
395.99633,0.05332
394.50654,0.04785
393.01675,0.04002
391.52697,0.03222
390.03718,0.04407
388.54739,0.03739
387.05760,0.03098
385.56781,0.02459
384.07802,0.05009
382.58824,0.04684
381.09845,0.03732
379.60866,0.02781
378.11887,0.04081
376.62908,0.01174
375.13929,0.01907
373.64950,0.02644
372.15972,0.02574
370.66993,0.04765
369.18014,0.05913
367.69035,0.07063
366.20056,0.06421
364.71077,0.06850
363.22099,0.04298
361.73120,0.01748
360.24141,0.01043
358.75162,0.04612
357.26183,0.06363
355.77204,0.08117
354.28225,0.09577
352.79247,0.08589
351.30268,0.08804
349.81289,0.09022
348.32310,0.10848
346.83331,0.08276
345.34352,0.08133
343.85374,0.07992
342.36395,0.06665
340.87416,0.04650
339.38437,0.04136
337.89458,0.03625
336.40479,0.06469
334.91501,0.05867
333.42522,0.05720
331.93543,0.05575
330.44564,0.04410
328.95585,0.09406
327.46606,0.07438
325.97627,0.05471
324.48649,0.04244
322.99670,0.06484
321.50691,0.05813
320.01712,0.05144
318.52733,0.05964
317.03754,0.07476
315.54776,0.11702
314.05797,0.15930
312.56818,0.18306
311.07839,0.12645
309.58860,0.10733
308.09881,0.08824
306.60902,0.07713
305.11924,0.03299
303.62945,0.03954
302.13966,0.02997
300.64987,0.01043
299.16008,0.01043
