1778.52000,0.00000
1777.03021,0.01723
1775.54042,0.00812
1774.05063,0.00908
1772.56085,0.01414
1771.07106,0.01955
1769.58127,0.02874
1768.09148,0.02666
1766.60169,0.01928
1765.11190,0.02353
1763.62212,0.00772
1762.13233,0.02143
1760.64254,0.01854
1759.15275,0.01976
1757.66296,0.01566
1756.17317,0.01128
1754.68339,0.00253
1753.19360,0.02141
1751.70381,0.01271
1750.21402,0.00372
1748.72423,0.00700
1747.23444,0.00936
1745.74465,0.01362
1744.25487,0.00819
1742.76508,0.01470
1741.27529,0.01088
1739.78550,0.00772
1738.29571,0.01462
1736.80592,0.02249
1735.31614,0.02913
1733.82635,0.02324
1732.33656,0.00796
1730.84677,0.00401
1729.35698,0.00385
1727.86719,0.01085
1726.37740,0.00563
1724.88762,0.00798
1723.39783,0.00721
1721.90804,0.00772
1720.41825,0.01128
1718.92846,0.01141
1717.43867,0.01721
1715.94889,0.01865
1714.45910,0.02168
1712.96931,0.02504
1711.47952,0.01055
1709.98973,0.01680
1708.49994,0.01114
1707.01016,0.01132
1705.52037,0.01152
1704.03058,0.02665
1702.54079,0.02330
1701.05100,0.02718
1699.56121,0.03392
1698.07142,0.03377
1696.58164,0.04495
1695.09185,0.04047
1693.60206,0.04354
1692.11227,0.04287
1690.62248,0.06325
1689.13269,0.05416
1687.64291,0.05169
1686.15312,0.06901
1684.66333,0.04776
1683.17354,0.06010
1681.68375,0.07122
1680.19396,0.07829
1678.70417,0.07440
1677.21439,0.07775
1675.72460,0.08583
1674.23481,0.09049
1672.74502,0.08482
1671.25523,0.07791
1669.76544,0.11434
1668.27566,0.10623
1666.78587,0.09846
1665.29608,0.11771
1663.80629,0.11783
1662.31650,0.11548
1660.82671,0.11879
1659.33693,0.12057
1657.84714,0.13397
1656.35735,0.12387
1654.86756,0.11568
1653.37777,0.10124
1651.88798,0.12259
1650.39819,0.10632
1648.90841,0.12365
1647.41862,0.09958
1645.92883,0.11021
1644.43904,0.12087
1642.94925,0.12041
1641.45946,0.11715
1639.96968,0.10984
1638.47989,0.08341
1636.99010,0.10879
1635.50031,0.09904
1634.01052,0.08399
1632.52073,0.08026
1631.03094,0.10354
1629.54116,0.09703
1628.05137,0.08835
1626.56158,0.09759
1625.07179,0.10654
1623.58200,0.11833
1622.09221,0.11760
1620.60243,0.10246
1619.11264,0.11716
1617.62285,0.10113
1616.13306,0.11211
1614.64327,0.09927
1613.15348,0.10591
1611.66370,0.11916
1610.17391,0.14029
1608.68412,0.11719
1607.19433,0.10667
1605.70454,0.10591
1604.21475,0.09795
1602.72496,0.09002
1601.23518,0.09686
1599.74539,0.10969
1598.25560,0.08992
1596.76581,0.09934
1595.27602,0.09656
1593.78623,0.08941
1592.29645,0.08542
1590.80666,0.09244
1589.31687,0.08851
1587.82708,0.08648
1586.33729,0.10079
1584.84750,0.11230
1583.35771,0.10031
1581.86793,0.09681
1580.37814,0.08518
1578.88835,0.09052
1577.39856,0.08052
1575.90877,0.08591
1574.41898,0.06183
1572.92920,0.06696
1571.43941,0.05799
1569.94962,0.05783
1568.45983,0.05770
1566.97004,0.04379
1565.48025,0.05658
1563.99047,0.04994
1562.50068,0.06528
1561.01089,0.04990
1559.52110,0.05212
1558.03131,0.04213
1556.54152,0.05507
1555.05173,0.04764
1553.56195,0.07035
1552.07216,0.06830
1550.58237,0.03459
1549.09258,0.01691
1547.60279,0.01682
1546.11300,0.02397
1544.62322,0.03805
1543.13343,0.03992
1541.64364,0.01452
1540.15385,0.01111
1538.66406,0.00772
1537.17427,0.01280
1535.68448,0.00943
1534.19470,0.01832
1532.70491,0.01626
1531.21512,0.02772
1529.72533,0.03292
1528.23554,0.05008
1526.74575,0.04341
1525.25597,0.03614
1523.76618,0.03266
1522.27639,0.04772
1520.78660,0.04115
1519.29681,0.03022
1517.80702,0.04567
1516.31724,0.07432
1514.82745,0.05154
1513.33766,0.05200
1511.84787,0.05249
1510.35808,0.05709
1508.86829,0.04696
1507.37850,0.05035
1505.88872,0.04435
1504.39893,0.04653
1502.90914,0.04592
1501.41935,0.06259
1499.92956,0.07803
1498.43977,0.06651
1496.94999,0.08639
1495.46020,0.09940
1493.97041,0.10553
1492.48062,0.07874
1490.99083,0.10374
1489.50104,0.11905
1488.01125,0.10912
1486.52147,0.09921
1485.03168,0.12181
1483.54189,0.15918
1482.05210,0.18120
1480.56231,0.19006
1479.07252,0.19802
1477.58274,0.23392
1476.09295,0.25604
1474.60316,0.24744
1473.11337,0.27118
1471.62358,0.26765
1470.13379,0.27387
1468.64401,0.29455
1467.15422,0.32467
1465.66443,0.32939
1464.17464,0.33415
1462.68485,0.37470
1461.19506,0.40115
1459.70527,0.44395
1458.21549,0.47014
1456.72570,0.55064
1455.23591,0.62489
1453.74612,0.64582
1452.25633,0.74021
1450.76654,0.78535
1449.27676,0.77530
1447.78697,0.77060
1446.29718,0.75087
1444.80739,0.72568
1443.31760,0.70051
1441.82781,0.60931
1440.33802,0.57713
1438.84824,0.52176
1437.35845,0.50563
1435.86866,0.51149
1434.37887,0.49259
1432.88908,0.52957
1431.39929,0.56846
1429.90951,0.67765
1428.41972,0.76303
1426.92993,0.85408
1425.44014,0.87957
1423.95035,0.88235
1422.46056,0.88514
1420.97078,0.92640
1419.48099,0.94918
1417.99120,0.99708
1416.50141,0.97880
1415.01162,0.93199
1413.52183,0.91909
1412.03204,0.85099
1410.54226,0.81367
1409.05247,0.75943
1407.56268,0.70271
1406.07289,0.62373
1404.58310,0.60142
1403.09331,0.57913
1401.60353,0.51121
1400.11374,0.44395
1398.62395,0.38392
1397.13416,0.32518
1395.64437,0.27399
1394.15458,0.23884
1392.66479,0.19806
1391.17501,0.14067
1389.68522,0.11720
1388.19543,0.08496
1386.70564,0.07566
1385.21585,0.06639
1383.72606,0.04458
1382.23628,0.04603
1380.74649,0.02239
1379.25670,0.01573
1377.76691,0.03513
1376.27712,0.00938
1374.78733,0.00687
1373.29755,0.01756
1371.80776,0.00632
1370.31797,0.02161
1368.82818,0.01465
1367.33839,0.00772
1365.84860,0.04269
1364.35881,0.04379
1362.86903,0.08289
1361.37924,0.07746
1359.88945,0.10123
1358.39966,0.11813
1356.90987,0.13882
1355.42008,0.19530
1353.93030,0.25369
1352.44051,0.29752
1350.95072,0.34137
1349.46093,0.40799
1347.97114,0.48406
1346.48135,0.54697
1344.99156,0.61994
1343.50178,0.64996
1342.01199,0.70290
1340.52220,0.77784
1339.03241,0.87320
1337.54262,0.95320
1336.05283,0.98837
1334.56305,1.02355
1333.07326,1.03241
1331.58347,1.02246
1330.09368,0.99685
1328.60389,1.05725
1327.11410,1.01914
1325.62432,0.99988
1324.13453,0.94582
1322.64474,0.90057
1321.15495,0.82742
1319.66516,0.81265
1318.17537,0.79792
1316.68558,0.74869
1315.19580,0.64395
1313.70601,0.58190
1312.21622,0.55221
1310.72643,0.54105
1309.23664,0.49540
1307.74685,0.46766
1306.25707,0.38849
1304.76728,0.36802
1303.27749,0.34757
1301.78770,0.31335
1300.29791,0.29326
1298.80812,0.23524
1297.31834,0.20141
1295.82855,0.15849
1294.33876,0.13255
1292.84897,0.11605
1291.35918,0.10648
1289.86939,0.11403
1288.37960,0.12161
1286.88982,0.09234
1285.40003,0.08193
1283.91024,0.09884
1282.42045,0.07184
1280.93066,0.04927
1279.44087,0.03551
1277.95109,0.04687
1276.46130,0.03096
1274.97151,0.03610
1273.48172,0.04126
1271.99193,0.03390
1270.50214,0.02594
1269.01235,0.04216
1267.52257,0.03331
1266.03278,0.01444
1264.54299,0.01285
1263.05320,0.03765
1261.56341,0.04616
1260.07362,0.05469
1258.58384,0.03532
1257.09405,0.01472
1255.60426,0.01109
1254.11447,0.03258
1252.62468,0.03057
1251.13489,0.04459
1249.64511,0.02569
1248.15532,0.02940
1246.66553,0.01855
1245.17574,0.00772
1243.68595,0.01861
1242.19616,0.02607
1240.70637,0.02321
1239.21659,0.03637
1237.72680,0.03387
1236.23701,0.01978
1234.74722,0.02266
1233.25743,0.02087
1231.76764,0.01909
1230.27786,0.04057
1228.78807,0.02661
1227.29828,0.02554
1225.80849,0.03202
1224.31870,0.01877
1222.82891,0.00805
1221.33912,0.01565
1219.84934,0.02501
1218.35955,0.03439
1216.86976,0.04301
1215.37997,0.05794
1213.89018,0.06786
1212.40039,0.09884
1210.91061,0.07431
1209.42082,0.06172
1207.93103,0.06767
1206.44124,0.07364
1204.95145,0.06270
1203.46166,0.04833
1201.97188,0.06756
1200.48209,0.06548
1198.99230,0.06908
1197.50251,0.03692
1196.01272,0.04057
1194.52293,0.02651
1193.03314,0.01247
1191.54336,0.00772
1190.05357,0.01967
1188.56378,0.02474
1187.07399,0.01729
1185.58420,0.02430
1184.09441,0.02568
1182.60463,0.01972
1181.11484,0.01378
1179.62505,0.00834
1178.13526,0.01704
1176.64547,0.01322
1175.15568,0.00785
1173.66589,0.03257
1172.17611,0.02720
1170.68632,0.03080
1169.19653,0.03442
1167.70674,0.02818
1166.21695,0.02636
1164.72716,0.03335
1163.23738,0.04539
1161.74759,0.06906
1160.25780,0.09025
1158.76801,0.07554
1157.27822,0.06085
1155.78843,0.07897
1154.29865,0.07830
1152.80886,0.09836
1151.31907,0.09711
1149.82928,0.12036
1148.33949,0.09844
1146.84970,0.10480
1145.35991,0.11118
1143.87013,0.13641
1142.38034,0.15194
1140.89055,0.17221
1139.40076,0.17586
1137.91097,0.18739
1136.42118,0.21871
1134.93140,0.21460
1133.44161,0.21052
1131.95182,0.21524
1130.46203,0.22188
1128.97224,0.23387
1127.48245,0.21859
1125.99266,0.22876
1124.50288,0.27346
1123.01309,0.25386
1121.52330,0.23429
1120.03351,0.23138
1118.54372,0.21343
1117.05393,0.21684
1115.56415,0.22529
1114.07436,0.20271
1112.58457,0.20212
1111.09478,0.20156
1109.60499,0.19066
1108.11520,0.21682
1106.62542,0.22103
1105.13563,0.21555
1103.64584,0.20883
1102.15605,0.21564
1100.66626,0.21023
1099.17647,0.20484
1097.68668,0.19038
1096.19690,0.18003
1094.70711,0.18539
1093.21732,0.19360
1091.72753,0.18929
1090.23774,0.17653
1088.74795,0.16379
1087.25817,0.17869
1085.76838,0.15596
1084.27859,0.15240
1082.78880,0.15483
1081.29901,0.14818
1079.80922,0.12901
1078.31943,0.14359
1076.82965,0.15820
1075.33986,0.18742
1073.85007,0.19063
1072.36028,0.19731
1070.87049,0.19712
1069.38070,0.25939
1067.89092,0.26631
1066.40113,0.27325
1064.91134,0.29983
1063.42155,0.37852
1061.93176,0.44876
1060.44197,0.53503
1058.95219,0.63702
1057.46240,0.68192
1055.97261,0.72685
1054.48282,0.84931
1052.99303,0.90371
1051.50324,0.91012
1050.01345,0.90651
1048.52367,0.88442
1047.03388,0.90377
1045.54409,0.92315
1044.05430,0.92624
1042.56451,0.84902
1041.07472,0.70531
1039.58494,0.63725
1038.09515,0.55477
1036.60536,0.54795
1035.11557,0.54114
1033.62578,0.48636
1032.13599,0.40493
1030.64620,0.33764
1029.15642,0.28890
1027.66663,0.25304
1026.17684,0.21721
1024.68705,0.21027
1023.19726,0.18328
1021.70747,0.15662
1020.21769,0.15070
1018.72790,0.14261
1017.23811,0.13846
1015.74832,0.13435
1014.25853,0.13982
1012.76874,0.10767
1011.27896,0.13579
1009.78917,0.11938
1008.29938,0.11711
1006.80959,0.10640
1005.31980,0.09571
1003.83001,0.04991
1002.34022,0.02641
1000.85044,0.00858
999.36065,0.00772
997.87086,0.03173
996.38107,0.05576
994.89128,0.07794
993.40149,0.09136
991.91171,0.10041
990.42192,0.12360
988.93213,0.12423
987.44234,0.12174
985.95255,0.11928
984.46276,0.12124
982.97297,0.08338
981.48319,0.08852
979.99340,0.10091
978.50361,0.08305
977.01382,0.06521
975.52403,0.04128
974.03424,0.03996
972.54446,0.05091
971.05467,0.01795
969.56488,0.01044
968.07509,0.01707
966.58530,0.02373
965.09551,0.02570
963.60573,0.04653
962.11594,0.03663
960.62615,0.00793
959.13636,0.00797
957.64657,0.00772
956.15678,0.02478
954.66699,0.05598
953.17721,0.05049
951.68742,0.05036
950.19763,0.07427
948.70784,0.09819
947.21805,0.07492
945.72826,0.09216
944.23848,0.10314
942.74869,0.11854
941.25890,0.11075
939.76911,0.12447
938.27932,0.13822
936.78953,0.18699
935.29974,0.20032
933.80996,0.23941
932.32017,0.24369
930.83038,0.26086
929.34059,0.27806
927.85080,0.29591
926.36101,0.34516
924.87123,0.36118
923.38144,0.44595
921.89165,0.49104
920.40186,0.53616
918.91207,0.63669
917.42228,0.77019
915.93250,0.94262
914.44271,1.19101
912.95292,1.28662
911.46313,1.38225
909.97334,1.51619
908.48355,1.64263
906.99376,1.76407
905.50398,1.89212
904.01419,1.92089
902.52440,1.94969
901.03461,2.00000
899.54482,1.93361
898.05503,1.82740
896.56525,1.60418
895.07546,1.48515
893.58567,1.36615
892.09588,1.10692
890.60609,0.88882
889.11630,0.66290
887.62651,0.48658
886.13673,0.43328
884.64694,0.38002
883.15715,0.27186
881.66736,0.18256
880.17757,0.13345
878.68778,0.11794
877.19800,0.10245
875.70821,0.07883
874.21842,0.06402
872.72863,0.05677
871.23884,0.04421
869.74905,0.04296
868.25927,0.04175
866.76948,0.04872
865.27969,0.05414
863.78990,0.04924
862.30011,0.06507
860.81032,0.06210
859.32053,0.05915
857.83075,0.09075
856.34096,0.13178
854.85117,0.13425
853.36138,0.13109
851.87159,0.13518
850.38180,0.13929
848.89202,0.13997
847.40223,0.15260
845.91244,0.19162
844.42265,0.18548
842.93286,0.17936
841.44307,0.19805
839.95329,0.19199
838.46350,0.24839
836.97371,0.28442
835.48392,0.27639
833.99413,0.26838
832.50434,0.24958
831.01455,0.23958
829.52477,0.19887
828.03498,0.17637
826.54519,0.17853
825.05540,0.18072
823.56561,0.15799
822.07582,0.15788
820.58604,0.11668
819.09625,0.10862
817.60646,0.10058
816.11667,0.11406
814.62688,0.13384
813.13709,0.12290
811.64730,0.10915
810.15752,0.11144
808.66773,0.11375
807.17794,0.09726
805.68815,0.12880
804.19836,0.10734
802.70857,0.12497
801.21879,0.14263
799.72900,0.10148
798.23921,0.10051
796.74942,0.12625
795.25963,0.12753
793.76984,0.12884
792.28006,0.11323
790.79027,0.12181
789.30048,0.17183
787.81069,0.18705
786.32090,0.19821
784.83111,0.20940
783.34132,0.24320
781.85154,0.27766
780.36175,0.29332
778.87196,0.30320
777.38217,0.31310
775.89238,0.36492
774.40259,0.38790
772.91281,0.36886
771.42302,0.35580
769.93323,0.34277
768.44344,0.29022
766.95365,0.27505
765.46386,0.25676
763.97407,0.20523
762.48429,0.18511
760.99450,0.16501
759.50471,0.14808
758.01492,0.11642
756.52513,0.11335
755.03534,0.10449
753.54556,0.09566
752.05577,0.06976
750.56598,0.07212
749.07619,0.08486
747.58640,0.07095
746.09661,0.05707
744.60683,0.03976
743.11704,0.03284
741.62725,0.02719
740.13746,0.02376
738.64767,0.02037
737.15788,0.03048
735.66809,0.01458
734.17831,0.02036
732.68852,0.01926
731.19873,0.01818
729.70894,0.00772
728.21915,0.00776
726.72936,0.02781
725.23958,0.01494
723.74979,0.02344
722.26000,0.03196
720.77021,0.02575
719.28042,0.03056
717.79063,0.01594
716.30084,0.02581
714.81106,0.03571
713.32127,0.00422
711.83148,0.01866
710.34169,0.01743
708.85190,0.03270
707.36211,0.04799
705.87233,0.03397
704.38254,0.04226
702.89275,0.05025
701.40296,0.05043
699.91317,0.05064
698.42338,0.07189
696.93360,0.10979
695.44381,0.10192
693.95402,0.11116
692.46423,0.12044
690.97444,0.13303
689.48465,0.14784
687.99486,0.16551
686.50508,0.17645
685.01529,0.18742
683.52550,0.19449
682.03571,0.22324
680.54592,0.26519
679.05613,0.25100
677.56635,0.23684
676.07656,0.26067
674.58677,0.23526
673.09698,0.23937
671.60719,0.24759
670.11740,0.25583
668.62761,0.24182
667.13783,0.19708
665.64804,0.16649
664.15825,0.13593
662.66846,0.11543
661.17867,0.09213
659.68888,0.05631
658.19910,0.04546
656.70931,0.03463
655.21952,0.05693
653.72973,0.05008
652.23994,0.05862
650.75015,0.05480
649.26037,0.05100
647.77058,0.03954
646.28079,0.03878
644.79100,0.04651
643.30121,0.03968
641.81142,0.03287
640.32163,0.01338
638.83185,0.00772
637.34206,0.01876
635.85227,0.01617
634.36248,0.01361
632.87269,0.00841
631.38290,0.02237
629.89312,0.03197
628.40333,0.03030
626.91354,0.02865
625.42375,0.01510
623.93396,0.03296
622.44417,0.01726
620.95438,0.00160
619.46460,0.03993
617.97481,0.05476
616.48502,0.08593
614.99523,0.10693
613.50544,0.12795
612.01565,0.14383
610.52587,0.15533
609.03608,0.18318
607.54629,0.19960
606.05650,0.21604
604.56671,0.26687
603.07692,0.27756
601.58714,0.30349
600.09735,0.32945
598.60756,0.34367
597.11777,0.39870
595.62798,0.34363
594.13819,0.34804
592.64840,0.35247
591.15862,0.35364
589.66883,0.32596
588.17904,0.30427
586.68925,0.27743
585.19946,0.25061
583.70967,0.19511
582.21989,0.15344
580.73010,0.12623
579.24031,0.09905
577.75052,0.06844
576.26073,0.04852
574.77094,0.02079
573.28115,0.04030
571.79137,0.05984
570.30158,0.05665
568.81179,0.08864
567.32200,0.09727
565.83221,0.10593
564.34242,0.12637
562.85264,0.11484
561.36285,0.14444
559.87306,0.15462
558.38327,0.16481
556.89348,0.16029
555.40369,0.18403
553.91391,0.18096
552.42412,0.17793
550.93433,0.18982
549.44454,0.17538
547.95475,0.20019
546.46496,0.20949
544.97517,0.21882
543.48539,0.23240
541.99560,0.27457
540.50581,0.29747
539.01602,0.32039
537.52623,0.34412
536.03644,0.38858
534.54666,0.43590
533.05687,0.48104
531.56708,0.52621
530.07729,0.50332
528.58750,0.54163
527.09771,0.55158
525.60792,0.56155
524.11814,0.60245
522.62835,0.63805
521.13856,0.69469
519.64877,0.72233
518.15898,0.75000
516.66919,0.76781
515.17941,0.76839
513.68962,0.77135
512.19983,0.77433
510.71004,0.74455
509.22025,0.68247
507.73046,0.61226
506.24068,0.57503
504.75089,0.53781
503.26110,0.40838
501.77131,0.35490
500.28152,0.31604
498.79173,0.27720
497.30194,0.23165
495.81216,0.16666
494.32237,0.14548
492.83258,0.12431
491.34279,0.09706
489.85300,0.06543
488.36321,0.09471
486.87343,0.08243
485.38364,0.07018
483.89385,0.09483
482.40406,0.12326
480.91427,0.12286
479.42448,0.12248
477.93469,0.10612
476.44491,0.14030
474.95512,0.15427
473.46533,0.16827
471.97554,0.15264
470.48575,0.20073
468.99596,0.16507
467.50618,0.16866
466.01639,0.17227
464.52660,0.12633
463.03681,0.11211
461.54702,0.09305
460.05723,0.07402
458.56745,0.03948
457.07766,0.05862
455.58787,0.04860
454.09808,0.03861
452.60829,0.00919
451.11850,0.00772
449.62871,0.01810
448.13893,0.02851
446.64914,0.04051
445.15935,0.03214
443.66956,0.03070
442.17977,0.03337
440.68998,0.03606
439.20020,0.06701
437.71041,0.04841
436.22062,0.04302
434.73083,0.03766
433.24104,0.05647
431.75125,0.07501
430.26146,0.05936
428.77168,0.04374
427.28189,0.03411
425.79210,0.05211
424.30231,0.06183
422.81252,0.07157
421.32273,0.04478
419.83295,0.04029
418.34316,0.05074
416.85337,0.06121
415.36358,0.03828
413.87379,0.04457
412.38400,0.04382
410.89422,0.04309
409.40443,0.00772
407.91464,0.03298
406.42485,0.03913
404.93506,0.03463
403.44527,0.03016
401.95548,0.04329
400.46570,0.03510
398.97591,0.02270
397.48612,0.01033
395.99633,0.01195
394.50654,0.01171
393.01675,0.01275
391.52697,0.00998
390.03718,0.02105
388.54739,0.01174
387.05760,0.01894
385.56781,0.02615
384.07802,0.00814
382.58824,0.02655
381.09845,0.01800
379.60866,0.00947
378.11887,0.02827
376.62908,0.03423
375.13929,0.02735
373.64950,0.02049
372.15972,0.02402
370.66993,0.02380
369.18014,0.03127
367.69035,0.03877
366.20056,0.05618
364.71077,0.07988
363.22099,0.05702
361.73120,0.03418
360.24141,0.03694
358.75162,0.00772
357.26183,0.02337
355.77204,0.03905
354.28225,0.07279
352.79247,0.07769
351.30268,0.07807
349.81289,0.07847
348.32310,0.11169
346.83331,0.08061
345.34352,0.07167
343.85374,0.06276
342.36395,0.05623
340.87416,0.06259
339.38437,0.04544
337.89458,0.02832
336.40479,0.03695
334.91501,0.02709
333.42522,0.04064
331.93543,0.05421
330.44564,0.00772
328.95585,0.03450
327.46606,0.03870
325.97627,0.04294
324.48649,0.03621
322.99670,0.03202
321.50691,0.01986
320.01712,0.00772
318.52733,0.01580
317.03754,0.02140
315.54776,0.04209
314.05797,0.06280
312.56818,0.09483
311.07839,0.10523
309.58860,0.10233
308.09881,0.09945
306.60902,0.04749
305.11924,0.03698
303.62945,0.03323
302.13966,0.02952
300.64987,0.00872
299.16008,0.00772
