1778.52000,0.01100
1777.03021,0.00910
1775.54042,0.00603
1774.05063,0.01115
1772.56085,0.01270
1771.07106,0.01229
1769.58127,0.01688
1768.09148,0.01195
1766.60169,0.00922
1765.11190,0.01547
1763.62212,0.00166
1762.13233,0.01193
1760.64254,0.01487
1759.15275,0.01366
1757.66296,0.00591
1756.17317,0.00972
1754.68339,0.01116
1753.19360,0.01005
1751.70381,0.01234
1750.21402,0.00669
1748.72423,0.00406
1747.23444,0.00383
1745.74465,0.00462
1744.25487,0.00683
1742.76508,0.01185
1741.27529,0.01172
1739.78550,0.01779
1738.29571,0.01174
1736.80592,0.00591
1735.31614,0.01274
1733.82635,0.01025
1732.33656,0.01534
1730.84677,0.00534
1729.35698,0.00411
1727.86719,0.00689
1726.37740,0.00929
1724.88762,0.00953
1723.39783,0.00920
1721.90804,0.00550
1720.41825,0.00462
1718.92846,0.00834
1717.43867,0.00591
1715.94889,0.01039
1714.45910,0.01628
1712.96931,0.01086
1711.47952,0.01063
1709.98973,0.00804
1708.49994,0.01324
1707.01016,0.01099
1705.52037,0.00877
1704.03058,0.01404
1702.54079,0.00958
1701.05100,0.01370
1699.56121,0.01227
1698.07142,0.01147
1696.58164,0.00591
1695.09185,0.01265
1693.60206,0.01782
1692.11227,0.01983
1690.62248,0.03042
1689.13269,0.01538
1687.64291,0.02144
1686.15312,0.02076
1684.66333,0.01832
1683.17354,0.02266
1681.68375,0.02425
1680.19396,0.01770
1678.70417,0.02550
1677.21439,0.02377
1675.72460,0.03122
1674.23481,0.03292
1672.74502,0.04300
1671.25523,0.03680
1669.76544,0.04971
1668.27566,0.05629
1666.78587,0.06408
1665.29608,0.05160
1663.80629,0.05805
1662.31650,0.06293
1660.82671,0.05709
1659.33693,0.05664
1657.84714,0.06935
1656.35735,0.07253
1654.86756,0.07375
1653.37777,0.07400
1651.88798,0.06691
1650.39819,0.07218
1648.90841,0.07787
1647.41862,0.07165
1645.92883,0.07450
1644.43904,0.07738
1642.94925,0.06765
1641.45946,0.07505
1639.96968,0.08009
1638.47989,0.07202
1636.99010,0.07751
1635.50031,0.08878
1634.01052,0.08258
1632.52073,0.07700
1631.03094,0.07143
1629.54116,0.07644
1628.05137,0.09102
1626.56158,0.08454
1625.07179,0.09479
1623.58200,0.09014
1622.09221,0.08254
1620.60243,0.08988
1619.11264,0.09207
1617.62285,0.09269
1616.13306,0.08856
1614.64327,0.08028
1613.15348,0.08695
1611.66370,0.08468
1610.17391,0.07667
1608.68412,0.08480
1607.19433,0.07922
1605.70454,0.08382
1604.21475,0.08326
1602.72496,0.08273
1601.23518,0.07566
1599.74539,0.07856
1598.25560,0.08168
1596.76581,0.07806
1595.27602,0.07686
1593.78623,0.08264
1592.29645,0.07114
1590.80666,0.07577
1589.31687,0.07585
1587.82708,0.08272
1586.33729,0.06933
1584.84750,0.07823
1583.35771,0.07205
1581.86793,0.07623
1580.37814,0.08203
1578.88835,0.06895
1577.39856,0.07897
1575.90877,0.05500
1574.41898,0.05472
1572.92920,0.05308
1571.43941,0.04151
1569.94962,0.03614
1568.45983,0.03079
1566.97004,0.02248
1565.48025,0.02314
1563.99047,0.01886
1562.50068,0.02494
1561.01089,0.02190
1559.52110,0.02544
1558.03131,0.01847
1556.54152,0.00973
1555.05173,0.01195
1553.56195,0.02136
1552.07216,0.02662
1550.58237,0.00703
1549.09258,0.01472
1547.60279,0.00951
1546.11300,0.00591
1544.62322,0.00687
1543.13343,0.00705
1541.64364,0.00746
1540.15385,0.01276
1538.66406,0.01809
1537.17427,0.01280
1535.68448,0.00953
1534.19470,0.01532
1532.70491,0.01617
1531.21512,0.02083
1529.72533,0.02749
1528.23554,0.02006
1526.74575,0.01125
1525.25597,0.01620
1523.76618,0.03908
1522.27639,0.04168
1520.78660,0.03337
1519.29681,0.04100
1517.80702,0.03234
1516.31724,0.04241
1514.82745,0.04911
1513.33766,0.04430
1511.84787,0.03952
1510.35808,0.04272
1508.86829,0.04633
1507.37850,0.05037
1505.88872,0.05842
1504.39893,0.05037
1502.90914,0.06264
1501.41935,0.07056
1499.92956,0.06656
1498.43977,0.06935
1496.94999,0.08490
1495.46020,0.09808
1493.97041,0.09657
1492.48062,0.10980
1490.99083,0.11510
1489.50104,0.13813
1488.01125,0.15302
1486.52147,0.16794
1485.03168,0.17990
1483.54189,0.18631
1482.05210,0.18698
1480.56231,0.21692
1479.07252,0.24687
1477.58274,0.26373
1476.09295,0.25912
1474.60316,0.26786
1473.11337,0.28041
1471.62358,0.29119
1470.13379,0.30319
1468.64401,0.31482
1467.15422,0.33582
1465.66443,0.34759
1464.17464,0.35939
1462.68485,0.36713
1461.19506,0.41647
1459.70527,0.44814
1458.21549,0.50250
1456.72570,0.56923
1455.23591,0.61827
1453.74612,0.68603
1452.25633,0.74069
1450.76654,0.74584
1449.27676,0.76096
1447.78697,0.74010
1446.29718,0.72284
1444.80739,0.71426
1443.31760,0.70570
1441.82781,0.65628
1440.33802,0.60669
1438.84824,0.56528
1437.35845,0.53006
1435.86866,0.50243
1434.37887,0.51918
1432.88908,0.56022
1431.39929,0.62815
1429.90951,0.70167
1428.41972,0.75532
1426.92993,0.82929
1425.44014,0.86289
1423.95035,0.89115
1422.46056,0.91943
1420.97078,0.98991
1419.48099,1.02262
1417.99120,0.98513
1416.50141,0.95084
1415.01162,0.91061
1413.52183,0.87856
1412.03204,0.81908
1410.54226,0.77991
1409.05247,0.71630
1407.56268,0.67579
1406.07289,0.59970
1404.58310,0.56630
1403.09331,0.53292
1401.60353,0.44436
1400.11374,0.40457
1398.62395,0.36381
1397.13416,0.30437
1395.64437,0.27539
1394.15458,0.24285
1392.66479,0.21293
1391.17501,0.15875
1389.68522,0.14320
1388.19543,0.11772
1386.70564,0.10311
1385.21585,0.08852
1383.72606,0.07804
1382.23628,0.05465
1380.74649,0.03287
1379.25670,0.03121
1377.76691,0.03892
1376.27712,0.02060
1374.78733,0.01125
1373.29755,0.00591
1371.80776,0.01354
1370.31797,0.01343
1368.82818,0.01604
1367.33839,0.01866
1365.84860,0.02539
1364.35881,0.03573
1362.86903,0.05047
1361.37924,0.06463
1359.88945,0.08120
1358.39966,0.10794
1356.90987,0.13949
1355.42008,0.16986
1353.93030,0.23447
1352.44051,0.26797
1350.95072,0.30150
1349.46093,0.36658
1347.97114,0.44462
1346.48135,0.51811
1344.99156,0.59500
1343.50178,0.65421
1342.01199,0.74567
1340.52220,0.78066
1339.03241,0.80692
1337.54262,0.83718
1336.05283,0.85662
1334.56305,0.87609
1333.07326,0.90921
1331.58347,0.93439
1330.09368,0.94528
1328.60389,0.89392
1327.11410,0.88576
1325.62432,0.83763
1324.13453,0.81161
1322.64474,0.75836
1321.15495,0.73497
1319.66516,0.71986
1318.17537,0.70478
1316.68558,0.65441
1315.19580,0.59133
1313.70601,0.52608
1312.21622,0.50284
1310.72643,0.48022
1309.23664,0.44807
1307.74685,0.41734
1306.25707,0.38007
1304.76728,0.36639
1303.27749,0.35274
1301.78770,0.30440
1300.29791,0.26304
1298.80812,0.24300
1297.31834,0.19234
1295.82855,0.16061
1294.33876,0.13964
1292.84897,0.12188
1291.35918,0.09957
1289.86939,0.09857
1288.37960,0.09759
1286.88982,0.08351
1285.40003,0.09630
1283.91024,0.08386
1282.42045,0.06189
1280.93066,0.05765
1279.44087,0.04289
1277.95109,0.06436
1276.46130,0.04487
1274.97151,0.03794
1273.48172,0.03104
1271.99193,0.01819
1270.50214,0.03401
1269.01235,0.03673
1267.52257,0.03827
1266.03278,0.03725
1264.54299,0.03169
1263.05320,0.03151
1261.56341,0.03077
1260.07362,0.03004
1258.58384,0.00587
1257.09405,0.01017
1255.60426,0.00872
1254.11447,0.00591
1252.62468,0.01622
1251.13489,0.01700
1249.64511,0.01522
1248.15532,0.01803
1246.66553,0.01342
1245.17574,0.00882
1243.68595,0.01132
1242.19616,0.03074
1240.70637,0.02533
1239.21659,0.02411
1237.72680,0.01635
1236.23701,0.01101
1234.74722,0.03234
1233.25743,0.03590
1231.76764,0.03948
1230.27786,0.03164
1228.78807,0.02940
1227.29828,0.01843
1225.80849,0.02996
1224.31870,0.00591
1222.82891,0.02947
1221.33912,0.02919
1219.84934,0.03171
1218.35955,0.03426
1216.86976,0.06568
1215.37997,0.07046
1213.89018,0.07567
1212.40039,0.07831
1210.91061,0.06765
1209.42082,0.06278
1207.93103,0.06451
1206.44124,0.06625
1204.95145,0.07120
1203.46166,0.09349
1201.97188,0.08894
1200.48209,0.08003
1198.99230,0.06439
1197.50251,0.05216
1196.01272,0.06581
1194.52293,0.06297
1193.03314,0.06015
1191.54336,0.06214
1190.05357,0.03868
1188.56378,0.02858
1187.07399,0.02427
1185.58420,0.03968
1184.09441,0.02547
1182.60463,0.02581
1181.11484,0.02617
1179.62505,0.02596
1178.13526,0.01264
1176.64547,0.00591
1175.15568,0.00988
1173.66589,0.00870
1172.17611,0.01391
1170.68632,0.00990
1169.19653,0.00591
1167.70674,0.02383
1166.21695,0.01809
1164.72716,0.04402
1163.23738,0.04728
1161.74759,0.05794
1160.25780,0.08831
1158.76801,0.09065
1157.27822,0.09302
1155.78843,0.09382
1154.29865,0.10917
1152.80886,0.11420
1151.31907,0.13238
1149.82928,0.12571
1148.33949,0.15150
1146.84970,0.15235
1145.35991,0.15322
1143.87013,0.13869
1142.38034,0.14767
1140.89055,0.15070
1139.40076,0.16907
1137.91097,0.16856
1136.42118,0.21742
1134.93140,0.21358
1133.44161,0.20977
1131.95182,0.23005
1130.46203,0.25891
1128.97224,0.23090
1127.48245,0.25623
1125.99266,0.26169
1124.50288,0.25901
1123.01309,0.26084
1121.52330,0.26268
1120.03351,0.25272
1118.54372,0.26247
1117.05393,0.24201
1115.56415,0.25679
1114.07436,0.24394
1112.58457,0.24673
1111.09478,0.24954
1109.60499,0.25506
1108.11520,0.26419
1106.62542,0.25384
1105.13563,0.25168
1103.64584,0.23820
1102.15605,0.22414
1100.66626,0.22643
1099.17647,0.22873
1097.68668,0.21475
1096.19690,0.22208
1094.70711,0.23739
1093.21732,0.21930
1091.72753,0.20382
1090.23774,0.20628
1088.74795,0.20875
1087.25817,0.20886
1085.76838,0.19288
1084.27859,0.19185
1082.78880,0.21650
1081.29901,0.21910
1079.80922,0.23266
1078.31943,0.24067
1076.82965,0.24871
1075.33986,0.27865
1073.85007,0.26266
1072.36028,0.24093
1070.87049,0.26777
1069.38070,0.27473
1067.89092,0.30420
1066.40113,0.33369
1064.91134,0.40021
1063.42155,0.50574
1061.93176,0.59100
1060.44197,0.69320
1058.95219,0.82646
1057.46240,0.86186
1055.97261,0.89729
1054.48282,0.96557
1052.99303,1.00980
1051.50324,1.05942
1050.01345,1.13035
1048.52367,1.10980
1047.03388,1.07624
1045.54409,1.04271
1044.05430,0.93370
1042.56451,0.86649
1041.07472,0.80448
1039.58494,0.74050
1038.09515,0.65885
1036.60536,0.61143
1035.11557,0.56404
1033.62578,0.50513
1032.13599,0.43013
1030.64620,0.38102
1029.15642,0.30806
1027.66663,0.28844
1026.17684,0.26885
1024.68705,0.24410
1023.19726,0.18874
1021.70747,0.17459
1020.21769,0.15568
1018.72790,0.14834
1017.23811,0.13734
1015.74832,0.12637
1014.25853,0.12546
1012.76874,0.10628
1011.27896,0.10463
1009.78917,0.08072
1008.29938,0.06599
1006.80959,0.06580
1005.31980,0.06563
1003.83001,0.03784
1002.34022,0.03633
1000.85044,0.04917
999.36065,0.05089
997.87086,0.05304
996.38107,0.05521
994.89128,0.08027
993.40149,0.08508
991.91171,0.12491
990.42192,0.11982
988.93213,0.14976
987.44234,0.15127
985.95255,0.15281
984.46276,0.13985
982.97297,0.14323
981.48319,0.12813
979.99340,0.10231
978.50361,0.08756
977.01382,0.07283
975.52403,0.05803
974.03424,0.03270
972.54446,0.02909
971.05467,0.03286
969.56488,0.02232
968.07509,0.01977
966.58530,0.01725
965.09551,0.00579
963.60573,0.01312
962.11594,0.01051
960.62615,0.00595
959.13636,0.01224
957.64657,0.01856
956.15678,0.00591
954.66699,0.03123
953.17721,0.02215
951.68742,0.03558
950.19763,0.04008
948.70784,0.04460
947.21805,0.06109
945.72826,0.08476
944.23848,0.08796
942.74869,0.10233
941.25890,0.12826
939.76911,0.13313
938.27932,0.13802
936.78953,0.15069
935.29974,0.16518
933.80996,0.19540
932.32017,0.20497
930.83038,0.21525
929.34059,0.22555
927.85080,0.23161
926.36101,0.24186
924.87123,0.27343
923.38144,0.31914
921.89165,0.34906
920.40186,0.37901
918.91207,0.46338
917.42228,0.57842
915.93250,0.72790
914.44271,0.89650
912.95292,1.00962
911.46313,1.12277
909.97334,1.33182
908.48355,1.58746
906.99376,1.76632
905.50398,1.91816
904.01419,1.94399
902.52440,1.96984
901.03461,2.00000
899.54482,1.93768
898.05503,1.81709
896.56525,1.60680
895.07546,1.46726
893.58567,1.32775
892.09588,1.10022
890.60609,0.85323
889.11630,0.65480
887.62651,0.46555
886.13673,0.39936
884.64694,0.33320
883.15715,0.25602
881.66736,0.18344
880.17757,0.14967
878.68778,0.12996
877.19800,0.11027
875.70821,0.07717
874.21842,0.05683
872.72863,0.04626
871.23884,0.02696
869.74905,0.02360
868.25927,0.02027
866.76948,0.03188
865.27969,0.04948
863.78990,0.04801
862.30011,0.06287
860.81032,0.06314
859.32053,0.06343
857.83075,0.07737
856.34096,0.10148
854.85117,0.12502
853.36138,0.14301
851.87159,0.15416
850.38180,0.16534
848.89202,0.21762
847.40223,0.22198
845.91244,0.26118
844.42265,0.26569
842.93286,0.27022
841.44307,0.25618
839.95329,0.26483
838.46350,0.29241
836.97371,0.29475
835.48392,0.30100
833.99413,0.30727
832.50434,0.30510
831.01455,0.30813
829.52477,0.28155
828.03498,0.25936
826.54519,0.24009
825.05540,0.22084
823.56561,0.19614
822.07582,0.18897
820.58604,0.15656
819.09625,0.15740
817.60646,0.15826
816.11667,0.17207
814.62688,0.18591
813.13709,0.16436
811.64730,0.15836
810.15752,0.15934
808.66773,0.16034
807.17794,0.15719
805.68815,0.18948
804.19836,0.19155
802.70857,0.18996
801.21879,0.18840
799.72900,0.16608
798.23921,0.16287
796.74942,0.15909
795.25963,0.16499
793.76984,0.17091
792.28006,0.18769
790.79027,0.20569
789.30048,0.21596
787.81069,0.25311
786.32090,0.26402
784.83111,0.27496
783.34132,0.30422
781.85154,0.35917
780.36175,0.39226
778.87196,0.40210
777.38217,0.41196
775.89238,0.44691
774.40259,0.45503
772.91281,0.45641
771.42302,0.43066
769.93323,0.40493
768.44344,0.37435
766.95365,0.32908
765.46386,0.29497
763.97407,0.23343
762.48429,0.20762
760.99450,0.18184
759.50471,0.14484
758.01492,0.11821
756.52513,0.11249
755.03534,0.11018
753.54556,0.10789
752.05577,0.09727
750.56598,0.08568
749.07619,0.07053
747.58640,0.05889
746.09661,0.04727
744.60683,0.05508
743.11704,0.03505
741.62725,0.02699
740.13746,0.02094
738.64767,0.01491
737.15788,0.01030
735.66809,0.00591
734.17831,0.00917
732.68852,0.01415
731.19873,0.01916
729.70894,0.02528
728.21915,0.02048
726.72936,0.02606
725.23958,0.00838
723.74979,0.00820
722.26000,0.00804
720.77021,0.01407
719.28042,0.00720
717.79063,0.00632
716.30084,0.01151
714.81106,0.01673
713.32127,0.00516
711.83148,0.02949
710.34169,0.01266
708.85190,0.02341
707.36211,0.03418
705.87233,0.03354
704.38254,0.03908
702.89275,0.03849
701.40296,0.04796
699.91317,0.05746
698.42338,0.04938
696.93360,0.07235
695.44381,0.09297
693.95402,0.09241
692.46423,0.09189
690.97444,0.13206
689.48465,0.15158
687.99486,0.17330
686.50508,0.18680
685.01529,0.20032
683.52550,0.20719
682.03571,0.23100
680.54592,0.23097
679.05613,0.24866
677.56635,0.26637
676.07656,0.26402
674.58677,0.24418
673.09698,0.21025
671.60719,0.19653
670.11740,0.18283
668.62761,0.14101
667.13783,0.12726
665.64804,0.12179
664.15825,0.11635
662.66846,0.11719
661.17867,0.07828
659.68888,0.06584
658.19910,0.04667
656.70931,0.02752
655.21952,0.02908
653.72973,0.03286
652.23994,0.04441
650.75015,0.03660
649.26037,0.02881
647.77058,0.03865
646.28079,0.03001
644.79100,0.02497
643.30121,0.02295
641.81142,0.02095
640.32163,0.02872
638.83185,0.01343
637.34206,0.02225
635.85227,0.01457
634.36248,0.00692
632.87269,0.00591
631.38290,0.01486
629.89312,0.01011
628.40333,0.00807
626.91354,0.00605
625.42375,0.00356
623.93396,0.00348
622.44417,0.00482
620.95438,0.00618
619.46460,0.01532
617.97481,0.02986
616.48502,0.03527
614.99523,0.05085
613.50544,0.06646
612.01565,0.10994
610.52587,0.15066
609.03608,0.18464
607.54629,0.21217
606.05650,0.23974
604.56671,0.26085
603.07692,0.30786
601.58714,0.32107
600.09735,0.33430
598.60756,0.37462
597.11777,0.39029
595.62798,0.41533
594.13819,0.40648
592.64840,0.39765
591.15862,0.35752
589.66883,0.28935
588.17904,0.23991
586.68925,0.21358
585.19946,0.18726
583.70967,0.14386
582.21989,0.11442
580.73010,0.09971
579.24031,0.08503
577.75052,0.06560
576.26073,0.04261
574.77094,0.04153
573.28115,0.02904
571.79137,0.01657
570.30158,0.05236
568.81179,0.06630
567.32200,0.07508
565.83221,0.08390
564.34242,0.10845
562.85264,0.11193
561.36285,0.13236
559.87306,0.14196
558.38327,0.15159
556.89348,0.15497
555.40369,0.16693
553.91391,0.17504
552.42412,0.18317
550.93433,0.18009
549.44454,0.18240
547.95475,0.18553
546.46496,0.19266
544.97517,0.19982
543.48539,0.21137
541.99560,0.24862
540.50581,0.27554
539.01602,0.30249
537.52623,0.36010
536.03644,0.37694
534.54666,0.39760
533.05687,0.41549
531.56708,0.43341
530.07729,0.47860
528.58750,0.51506
527.09771,0.54907
525.60792,0.58309
524.11814,0.63276
522.62835,0.68583
521.13856,0.75345
519.64877,0.76708
518.15898,0.78073
516.66919,0.83271
515.17941,0.86839
513.68962,0.85845
512.19983,0.84852
510.71004,0.79496
509.22025,0.73266
507.73046,0.68153
506.24068,0.60884
504.75089,0.53618
503.26110,0.46861
501.77131,0.37182
500.28152,0.33284
498.79173,0.29389
497.30194,0.23338
495.81216,0.17209
494.32237,0.15420
492.83258,0.13634
491.34279,0.09482
489.85300,0.08078
488.36321,0.09223
486.87343,0.08410
485.38364,0.07600
483.89385,0.07439
482.40406,0.09330
480.91427,0.10019
479.42448,0.10711
477.93469,0.11395
476.44491,0.15205
474.95512,0.17435
473.46533,0.19668
471.97554,0.23246
470.48575,0.21038
468.99596,0.18673
467.50618,0.18618
466.01639,0.18565
464.52660,0.16844
463.03681,0.11544
461.54702,0.09370
460.05723,0.07198
458.56745,0.06162
457.07766,0.05746
455.58787,0.04894
454.09808,0.04045
452.60829,0.02403
451.11850,0.02732
449.62871,0.02328
448.13893,0.01926
446.64914,0.00591
445.15935,0.01018
443.66956,0.02123
442.17977,0.02246
440.68998,0.02372
439.20020,0.01913
437.71041,0.02272
436.22062,0.02981
434.73083,0.03693
433.24104,0.03662
431.75125,0.03175
430.26146,0.02571
428.77168,0.01970
427.28189,0.02286
425.79210,0.03361
424.30231,0.03373
422.81252,0.03388
421.32273,0.04251
419.83295,0.02649
418.34316,0.02363
416.85337,0.02079
415.36358,0.01937
413.87379,0.02255
412.38400,0.02635
410.89422,0.03017
409.40443,0.03780
407.91464,0.02953
406.42485,0.04934
404.93506,0.04182
403.44527,0.03432
401.95548,0.03690
400.46570,0.02796
398.97591,0.02580
397.48612,0.02367
395.99633,0.02117
394.50654,0.01093
393.01675,0.00997
391.52697,0.00591
390.03718,0.02565
388.54739,0.02512
387.05760,0.02799
385.56781,0.03089
384.07802,0.01810
382.58824,0.01787
381.09845,0.01298
379.60866,0.00812
378.11887,0.00000
376.62908,0.01180
375.13929,0.01536
373.64950,0.01895
372.15972,0.00874
370.66993,0.00591
369.18014,0.00975
367.69035,0.01361
366.20056,0.02515
364.71077,0.01703
363.22099,0.02454
361.73120,0.03208
360.24141,0.01547
358.75162,0.02972
357.26183,0.02639
355.77204,0.02308
354.28225,0.03859
352.79247,0.03504
351.30268,0.03558
349.81289,0.03615
348.32310,0.03704
346.83331,0.04153
345.34352,0.03312
343.85374,0.02473
342.36395,0.02651
340.87416,0.02414
339.38437,0.02667
337.89458,0.02921
336.40479,0.03328
334.91501,0.03120
333.42522,0.02159
331.93543,0.01200
330.44564,0.02113
328.95585,0.01577
327.46606,0.01083
325.97627,0.00591
324.48649,0.04106
322.99670,0.08300
321.50691,0.08219
320.01712,0.08141
318.52733,0.06314
317.03754,0.07235
315.54776,0.07055
314.05797,0.06877
312.56818,0.08064
311.07839,0.07741
309.58860,0.06635
308.09881,0.05531
306.60902,0.04440
305.11924,0.02396
303.62945,0.02006
302.13966,0.01618
300.64987,0.01173
299.16008,0.00591
