1778.52000,0.00663
1777.03021,0.00523
1775.54042,0.00071
1774.05063,0.00588
1772.56085,0.01174
1771.07106,0.00977
1769.58127,0.01007
1768.09148,0.00860
1766.60169,0.00176
1765.11190,0.00572
1763.62212,0.00702
1762.13233,0.00902
1760.64254,0.00856
1759.15275,0.01510
1757.66296,0.01200
1756.17317,0.00736
1754.68339,0.00386
1753.19360,0.00645
1751.70381,0.00525
1750.21402,0.00587
1748.72423,0.01034
1747.23444,0.00427
1745.74465,0.00698
1744.25487,0.01265
1742.76508,0.00665
1741.27529,0.01039
1739.78550,0.01259
1738.29571,0.01571
1736.80592,0.02312
1735.31614,0.01416
1733.82635,0.00589
1732.33656,0.00372
1730.84677,-0.00000
1729.35698,0.00459
1727.86719,0.00201
1726.37740,0.00283
1724.88762,0.00211
1723.39783,0.00859
1721.90804,0.00207
1720.41825,0.00434
1718.92846,0.00708
1717.43867,0.00176
1715.94889,0.01036
1714.45910,0.00506
1712.96931,0.00518
1711.47952,0.00510
1709.98973,0.00482
1708.49994,0.00276
1707.01016,0.00511
1705.52037,0.00749
1704.03058,0.01180
1702.54079,0.00176
1701.05100,0.01127
1699.56121,0.01721
1698.07142,0.02385
1696.58164,0.01209
1695.09185,0.02058
1693.60206,0.02909
1692.11227,0.02819
1690.62248,0.03697
1689.13269,0.04354
1687.64291,0.04114
1686.15312,0.04595
1684.66333,0.04046
1683.17354,0.04622
1681.68375,0.05336
1680.19396,0.04300
1678.70417,0.06546
1677.21439,0.05762
1675.72460,0.06351
1674.23481,0.05886
1672.74502,0.06412
1671.25523,0.07143
1669.76544,0.08843
1668.27566,0.08478
1666.78587,0.08677
1665.29608,0.09373
1663.80629,0.09420
1662.31650,0.10907
1660.82671,0.09566
1659.33693,0.11103
1657.84714,0.08846
1656.35735,0.09377
1654.86756,0.08877
1653.37777,0.09054
1651.88798,0.07840
1650.39819,0.08493
1648.90841,0.08924
1647.41862,0.08527
1645.92883,0.08626
1644.43904,0.08727
1642.94925,0.09842
1641.45946,0.09297
1639.96968,0.08620
1638.47989,0.09091
1636.99010,0.07924
1635.50031,0.06985
1634.01052,0.06901
1632.52073,0.07539
1631.03094,0.05866
1629.54116,0.06868
1628.05137,0.07064
1626.56158,0.06993
1625.07179,0.09149
1623.58200,0.09263
1622.09221,0.10569
1620.60243,0.09363
1619.11264,0.10674
1617.62285,0.09181
1616.13306,0.08745
1614.64327,0.09300
1613.15348,0.08960
1611.66370,0.10329
1610.17391,0.09813
1608.68412,0.09323
1607.19433,0.09149
1605.70454,0.08955
1604.21475,0.08337
1602.72496,0.07722
1601.23518,0.08502
1599.74539,0.09172
1598.25560,0.07980
1596.76581,0.06700
1595.27602,0.07692
1593.78623,0.07249
1592.29645,0.07616
1590.80666,0.07987
1589.31687,0.06383
1587.82708,0.07252
1586.33729,0.08281
1584.84750,0.07920
1583.35771,0.07719
1581.86793,0.07115
1580.37814,0.06582
1578.88835,0.06006
1577.39856,0.06691
1575.90877,0.05918
1574.41898,0.05506
1572.92920,0.05884
1571.43941,0.05410
1569.94962,0.04714
1568.45983,0.04021
1566.97004,0.02881
1565.48025,0.02552
1563.99047,0.03640
1562.50068,0.03361
1561.01089,0.05309
1559.52110,0.04810
1558.03131,0.04134
1556.54152,0.03370
1555.05173,0.04699
1553.56195,0.04030
1552.07216,0.03454
1550.58237,0.01824
1549.09258,0.00062
1547.60279,0.00819
1546.11300,0.02117
1544.62322,0.02744
1543.13343,0.01620
1541.64364,0.00949
1540.15385,0.01258
1538.66406,0.01568
1537.17427,0.00590
1535.68448,0.00176
1534.19470,0.00859
1532.70491,0.01972
1531.21512,0.02929
1529.72533,0.03283
1528.23554,0.02134
1526.74575,0.02201
1525.25597,0.04741
1523.76618,0.04094
1522.27639,0.02618
1520.78660,0.03413
1519.29681,0.03785
1517.80702,0.03349
1516.31724,0.03568
1514.82745,0.03767
1513.33766,0.04125
1511.84787,0.04486
1510.35808,0.03300
1508.86829,0.03778
1507.37850,0.03697
1505.88872,0.03259
1504.39893,0.03857
1502.90914,0.05267
1501.41935,0.06004
1499.92956,0.06250
1498.43977,0.07465
1496.94999,0.06952
1495.46020,0.08306
1493.97041,0.07955
1492.48062,0.08618
1490.99083,0.09328
1489.50104,0.10265
1488.01125,0.10576
1486.52147,0.10889
1485.03168,0.12485
1483.54189,0.13837
1482.05210,0.15191
1480.56231,0.17064
1479.07252,0.18064
1477.58274,0.21042
1476.09295,0.22159
1474.60316,0.23728
1473.11337,0.23681
1471.62358,0.23255
1470.13379,0.23641
1468.64401,0.25713
1467.15422,0.28440
1465.66443,0.28732
1464.17464,0.29026
1462.68485,0.32299
1461.19506,0.35080
1459.70527,0.37662
1458.21549,0.41796
1456.72570,0.46270
1455.23591,0.50297
1453.74612,0.58235
1452.25633,0.64289
1450.76654,0.65672
1449.27676,0.67080
1447.78697,0.63774
1446.29718,0.62604
1444.80739,0.60515
1443.31760,0.58429
1441.82781,0.53402
1440.33802,0.51388
1438.84824,0.46164
1437.35845,0.44852
1435.86866,0.44575
1434.37887,0.42369
1432.88908,0.46770
1431.39929,0.51173
1429.90951,0.56950
1428.41972,0.62549
1426.92993,0.71722
1425.44014,0.74114
1423.95035,0.75755
1422.46056,0.77399
1420.97078,0.78225
1419.48099,0.82806
1417.99120,0.81390
1416.50141,0.82516
1415.01162,0.78388
1413.52183,0.74711
1412.03204,0.70543
1410.54226,0.65231
1409.05247,0.59383
1407.56268,0.52459
1406.07289,0.47851
1404.58310,0.45930
1403.09331,0.44012
1401.60353,0.41119
1400.11374,0.35061
1398.62395,0.30398
1397.13416,0.27108
1395.64437,0.22562
1394.15458,0.22827
1392.66479,0.19814
1391.17501,0.13254
1389.68522,0.10178
1388.19543,0.07689
1386.70564,0.06910
1385.21585,0.06133
1383.72606,0.05292
1382.23628,0.04026
1380.74649,0.01976
1379.25670,0.02625
1377.76691,0.00176
1376.27712,0.01895
1374.78733,0.01057
1373.29755,0.00176
1371.80776,0.01239
1370.31797,0.00754
1368.82818,0.01440
1367.33839,0.02128
1365.84860,0.02033
1364.35881,0.03804
1362.86903,0.05354
1361.37924,0.05266
1359.88945,0.07876
1358.39966,0.09860
1356.90987,0.12250
1355.42008,0.15227
1353.93030,0.21621
1352.44051,0.24401
1350.95072,0.27184
1349.46093,0.32215
1347.97114,0.37608
1346.48135,0.42644
1344.99156,0.50873
1343.50178,0.54005
1342.01199,0.57903
1340.52220,0.65173
1339.03241,0.69435
1337.54262,0.73767
1336.05283,0.76159
1334.56305,0.78553
1333.07326,0.81275
1331.58347,0.76946
1330.09368,0.75270
1328.60389,0.79167
1327.11410,0.78036
1325.62432,0.74165
1324.13453,0.72095
1322.64474,0.65309
1321.15495,0.60458
1319.66516,0.58968
1318.17537,0.57480
1316.68558,0.54052
1315.19580,0.50985
1313.70601,0.46933
1312.21622,0.43961
1310.72643,0.42183
1309.23664,0.38407
1307.74685,0.35286
1306.25707,0.32683
1304.76728,0.30308
1303.27749,0.27935
1301.78770,0.26329
1300.29791,0.22590
1298.80812,0.17619
1297.31834,0.16627
1295.82855,0.13615
1294.33876,0.11841
1292.84897,0.10743
1291.35918,0.09356
1289.86939,0.07961
1288.37960,0.06567
1286.88982,0.06513
1285.40003,0.06327
1283.91024,0.08030
1282.42045,0.05332
1280.93066,0.03828
1279.44087,0.03696
1277.95109,0.03544
1276.46130,0.03822
1274.97151,0.03203
1273.48172,0.02587
1271.99193,0.02109
1270.50214,0.02396
1269.01235,0.01900
1267.52257,0.04035
1266.03278,0.02375
1264.54299,0.02605
1263.05320,0.03422
1261.56341,0.02826
1260.07362,0.02232
1258.58384,0.01663
1257.09405,0.00176
1255.60426,0.01738
1254.11447,0.00967
1252.62468,0.03793
1251.13489,0.01769
1249.64511,0.01792
1248.15532,0.00851
1246.66553,0.01047
1245.17574,0.01245
1243.68595,0.01435
1242.19616,0.00729
1240.70637,0.00924
1239.21659,0.02177
1237.72680,0.02107
1236.23701,0.01612
1234.74722,0.01188
1233.25743,0.02226
1231.76764,0.03267
1230.27786,0.01120
1228.78807,0.01110
1227.29828,0.01552
1225.80849,0.02041
1224.31870,0.00219
1222.82891,0.01521
1221.33912,0.00176
1219.84934,0.00946
1218.35955,0.01719
1216.86976,0.02551
1215.37997,0.02958
1213.89018,0.05727
1212.40039,0.06229
1210.91061,0.05071
1209.42082,0.05735
1207.93103,0.04796
1206.44124,0.03859
1204.95145,0.04104
1203.46166,0.05542
1201.97188,0.06061
1200.48209,0.04045
1198.99230,0.03760
1197.50251,0.03703
1196.01272,0.02278
1194.52293,0.02461
1193.03314,0.02647
1191.54336,0.01522
1190.05357,0.00938
1188.56378,0.01861
1187.07399,0.01260
1185.58420,0.00616
1184.09441,0.01210
1182.60463,0.01458
1181.11484,0.01709
1179.62505,0.01389
1178.13526,0.00982
1176.64547,0.00645
1175.15568,0.00176
1173.66589,0.00960
1172.17611,0.01724
1170.68632,0.01165
1169.19653,0.00609
1167.70674,0.01448
1166.21695,0.01031
1164.72716,0.02010
1163.23738,0.03553
1161.74759,0.03503
1160.25780,0.04781
1158.76801,0.04040
1157.27822,0.03301
1155.78843,0.04632
1154.29865,0.04729
1152.80886,0.05593
1151.31907,0.07694
1149.82928,0.08833
1148.33949,0.07457
1146.84970,0.07814
1145.35991,0.08173
1143.87013,0.10692
1142.38034,0.10832
1140.89055,0.12951
1139.40076,0.13230
1137.91097,0.15264
1136.42118,0.17480
1134.93140,0.16981
1133.44161,0.16484
1131.95182,0.19494
1130.46203,0.21900
1128.97224,0.20175
1127.48245,0.19531
1125.99266,0.21674
1124.50288,0.24158
1123.01309,0.24015
1121.52330,0.23875
1120.03351,0.20929
1118.54372,0.19019
1117.05393,0.20975
1115.56415,0.19834
1114.07436,0.21099
1112.58457,0.20547
1111.09478,0.19997
1109.60499,0.18619
1108.11520,0.19938
1106.62542,0.22362
1105.13563,0.19575
1103.64584,0.21082
1102.15605,0.19806
1100.66626,0.19049
1099.17647,0.18294
1097.68668,0.16846
1096.19690,0.18140
1094.70711,0.16270
1093.21732,0.16604
1091.72753,0.17434
1090.23774,0.16863
1088.74795,0.16294
1087.25817,0.14076
1085.76838,0.14310
1084.27859,0.13827
1082.78880,0.16133
1081.29901,0.14195
1079.80922,0.13517
1078.31943,0.13988
1076.82965,0.14461
1075.33986,0.17048
1073.85007,0.16291
1072.36028,0.18119
1070.87049,0.21658
1069.38070,0.22705
1067.89092,0.23620
1066.40113,0.24537
1064.91134,0.27007
1063.42155,0.31703
1061.93176,0.38446
1060.44197,0.45102
1058.95219,0.54815
1057.46240,0.60195
1055.97261,0.65578
1054.48282,0.75029
1052.99303,0.81158
1051.50324,0.78955
1050.01345,0.82438
1048.52367,0.81453
1047.03388,0.82032
1045.54409,0.82613
1044.05430,0.79951
1042.56451,0.74887
1041.07472,0.63963
1039.58494,0.58230
1038.09515,0.56274
1036.60536,0.53186
1035.11557,0.50100
1033.62578,0.46691
1032.13599,0.39623
1030.64620,0.35949
1029.15642,0.28909
1027.66663,0.26139
1026.17684,0.23371
1024.68705,0.21213
1023.19726,0.18855
1021.70747,0.16454
1020.21769,0.14011
1018.72790,0.13637
1017.23811,0.12962
1015.74832,0.12290
1014.25853,0.11834
1012.76874,0.11694
1011.27896,0.11018
1009.78917,0.10704
1008.29938,0.11538
1006.80959,0.09881
1005.31980,0.08226
1003.83001,0.04642
1002.34022,0.03577
1000.85044,0.01885
999.36065,0.01408
997.87086,0.02215
996.38107,0.03024
994.89128,0.04509
993.40149,0.06379
991.91171,0.07060
990.42192,0.07497
988.93213,0.07959
987.44234,0.07805
985.95255,0.07654
984.46276,0.08281
982.97297,0.05473
981.48319,0.07430
979.99340,0.05997
978.50361,0.05679
977.01382,0.05363
975.52403,0.04881
974.03424,0.04626
972.54446,0.01274
971.05467,0.01788
969.56488,0.02169
968.07509,0.02239
966.58530,0.02311
965.09551,0.03127
963.60573,0.02081
962.11594,0.01936
960.62615,0.00176
959.13636,0.01075
957.64657,0.01978
956.15678,0.02916
954.66699,0.05542
953.17721,0.05048
951.68742,0.06038
950.19763,0.06470
948.70784,0.06904
947.21805,0.08891
945.72826,0.09532
944.23848,0.12400
942.74869,0.12394
941.25890,0.13290
939.76911,0.14627
938.27932,0.15965
936.78953,0.20261
935.29974,0.22402
933.80996,0.23220
932.32017,0.21413
930.83038,0.22258
929.34059,0.23107
927.85080,0.24429
926.36101,0.27124
924.87123,0.27014
923.38144,0.32747
921.89165,0.36966
920.40186,0.41187
918.91207,0.46995
917.42228,0.60600
915.93250,0.73332
914.44271,0.94468
912.95292,1.05408
911.46313,1.16350
909.97334,1.34326
908.48355,1.50889
906.99376,1.68061
905.50398,1.85708
904.01419,1.92158
902.52440,1.98611
901.03461,2.00000
899.54482,1.95371
898.05503,1.80951
896.56525,1.63589
895.07546,1.51465
893.58567,1.39343
892.09588,1.13430
890.60609,0.88238
889.11630,0.65026
887.62651,0.50106
886.13673,0.43995
884.64694,0.37886
883.15715,0.27241
881.66736,0.19407
880.17757,0.15732
878.68778,0.13429
877.19800,0.11129
875.70821,0.06383
874.21842,0.05862
872.72863,0.02873
871.23884,0.05076
869.74905,0.04405
868.25927,0.03737
866.76948,0.03431
865.27969,0.06655
863.78990,0.05231
862.30011,0.04910
860.81032,0.05434
859.32053,0.05960
857.83075,0.08454
856.34096,0.09559
854.85117,0.10373
853.36138,0.09303
851.87159,0.09651
850.38180,0.10001
848.89202,0.12331
847.40223,0.15404
845.91244,0.15987
844.42265,0.15864
842.93286,0.15744
841.44307,0.16513
839.95329,0.19127
838.46350,0.22013
836.97371,0.25890
835.48392,0.24322
833.99413,0.22756
832.50434,0.21811
831.01455,0.21182
829.52477,0.19029
828.03498,0.16114
826.54519,0.15425
825.05540,0.14739
823.56561,0.13090
822.07582,0.11443
820.58604,0.11169
819.09625,0.10672
817.60646,0.10178
816.11667,0.09530
814.62688,0.09310
813.13709,0.09565
811.64730,0.10407
810.15752,0.09599
808.66773,0.08794
807.17794,0.07756
805.68815,0.08473
804.19836,0.10832
802.70857,0.10677
801.21879,0.10525
799.72900,0.10173
798.23921,0.08858
796.74942,0.09746
795.25963,0.09694
793.76984,0.09644
792.28006,0.08765
790.79027,0.10517
789.30048,0.13687
787.81069,0.14950
786.32090,0.16227
784.83111,0.17506
783.34132,0.23336
781.85154,0.24227
780.36175,0.26019
778.87196,0.27229
777.38217,0.28442
775.89238,0.32511
774.40259,0.33324
772.91281,0.31399
771.42302,0.30735
769.93323,0.30073
768.44344,0.28245
766.95365,0.25836
765.46386,0.23632
763.97407,0.18712
762.48429,0.18084
760.99450,0.17460
759.50471,0.15063
758.01492,0.11680
756.52513,0.09558
755.03534,0.08865
753.54556,0.08174
752.05577,0.07137
750.56598,0.07361
749.07619,0.05948
747.58640,0.04953
746.09661,0.03960
744.60683,0.03362
743.11704,0.04115
741.62725,0.01568
740.13746,0.02293
738.64767,0.03019
737.15788,0.01738
735.66809,0.02077
734.17831,0.00890
732.68852,0.01570
731.19873,0.02253
729.70894,0.00176
728.21915,0.03019
726.72936,0.02698
725.23958,0.00447
723.74979,0.00310
722.26000,0.00176
720.77021,0.00444
719.28042,0.00512
717.79063,0.01055
716.30084,0.01106
714.81106,0.01159
713.32127,0.00249
711.83148,0.01520
710.34169,0.01356
708.85190,0.02093
707.36211,0.02833
705.87233,0.04159
704.38254,0.04904
702.89275,0.03989
701.40296,0.04435
699.91317,0.04884
698.42338,0.07727
696.93360,0.08327
695.44381,0.09244
693.95402,0.09893
692.46423,0.10545
690.97444,0.11177
689.48465,0.13968
687.99486,0.15729
686.50508,0.15818
685.01529,0.15909
683.52550,0.20171
682.03571,0.22368
680.54592,0.23264
679.05613,0.23747
677.56635,0.24233
676.07656,0.23565
674.58677,0.22674
673.09698,0.20909
671.60719,0.21057
670.11740,0.21207
668.62761,0.17945
667.13783,0.13719
665.64804,0.12641
664.15825,0.11565
662.66846,0.10852
661.17867,0.07871
659.68888,0.06713
658.19910,0.05120
656.70931,0.03528
655.21952,0.01344
653.72973,0.03588
652.23994,0.03319
650.75015,0.03557
649.26037,0.03798
647.77058,0.03603
646.28079,0.02984
644.79100,0.03333
643.30121,0.02742
641.81142,0.02152
640.32163,0.03093
638.83185,0.02172
637.34206,0.00669
635.85227,0.01289
634.36248,0.01912
632.87269,0.02279
631.38290,0.02447
629.89312,0.01830
628.40333,0.02036
626.91354,0.02245
625.42375,0.00535
623.93396,0.00176
622.44417,0.01484
620.95438,0.02795
619.46460,0.04051
617.97481,0.05940
616.48502,0.07382
614.99523,0.09028
613.50544,0.10677
612.01565,0.13047
610.52587,0.12858
609.03608,0.17884
607.54629,0.18588
606.05650,0.19294
604.56671,0.23766
603.07692,0.26308
601.58714,0.28044
600.09735,0.29783
598.60756,0.32804
597.11777,0.37917
595.62798,0.34945
594.13819,0.34874
592.64840,0.34805
591.15862,0.34537
589.66883,0.30362
588.17904,0.25448
586.68925,0.23648
585.19946,0.21850
583.70967,0.14630
582.21989,0.11186
580.73010,0.09149
579.24031,0.07114
577.75052,0.05475
576.26073,0.03389
574.77094,0.03081
573.28115,0.02617
571.79137,0.02156
570.30158,0.05382
568.81179,0.06363
567.32200,0.07976
565.83221,0.09592
564.34242,0.08424
562.85264,0.10112
561.36285,0.12140
559.87306,0.12417
558.38327,0.12697
556.89348,0.12194
555.40369,0.12479
553.91391,0.13957
552.42412,0.15437
550.93433,0.12675
549.44454,0.12206
547.95475,0.14076
546.46496,0.14443
544.97517,0.14813
543.48539,0.20149
541.99560,0.25107
540.50581,0.25484
539.01602,0.25864
537.52623,0.27504
536.03644,0.31865
534.54666,0.34745
533.05687,0.36999
531.56708,0.39256
530.07729,0.42279
528.58750,0.46877
527.09771,0.49567
525.60792,0.52261
524.11814,0.56821
522.62835,0.61968
521.13856,0.68937
519.64877,0.70843
518.15898,0.72751
516.66919,0.75953
515.17941,0.77832
513.68962,0.77681
512.19983,0.77533
510.71004,0.70568
509.22025,0.66886
507.73046,0.58624
506.24068,0.54621
504.75089,0.50621
503.26110,0.42411
501.77131,0.31373
500.28152,0.27729
498.79173,0.24086
497.30194,0.21525
495.81216,0.18809
494.32237,0.15039
492.83258,0.11272
491.34279,0.08855
489.85300,0.06464
488.36321,0.06838
486.87343,0.06765
485.38364,0.06694
483.89385,0.08154
482.40406,0.08201
480.91427,0.09070
479.42448,0.09941
477.93469,0.11164
476.44491,0.12366
474.95512,0.12358
473.46533,0.12352
471.97554,0.12888
470.48575,0.13853
468.99596,0.14506
467.50618,0.12893
466.01639,0.11282
464.52660,0.13268
463.03681,0.08225
461.54702,0.07767
460.05723,0.07312
458.56745,0.05624
457.07766,0.06611
455.58787,0.05321
454.09808,0.04033
452.60829,0.00176
451.11850,0.03376
449.62871,0.02311
448.13893,0.01249
446.64914,0.02615
445.15935,0.03287
443.66956,0.02816
442.17977,0.03605
440.68998,0.04397
439.20020,0.03866
437.71041,0.02618
436.22062,0.03103
434.73083,0.03590
433.24104,0.03316
431.75125,0.04639
430.26146,0.03326
428.77168,0.02014
427.28189,0.03952
425.79210,0.04049
424.30231,0.04655
422.81252,0.05263
421.32273,0.04447
419.83295,0.03454
418.34316,0.03440
416.85337,0.03429
415.36358,0.03567
413.87379,0.04134
412.38400,0.03962
410.89422,0.03792
409.40443,0.02726
407.91464,0.00764
406.42485,0.04053
404.93506,0.03862
403.44527,0.03674
401.95548,0.02948
400.46570,0.01192
398.97591,0.01382
397.48612,0.01574
395.99633,0.02342
394.50654,0.02325
393.01675,0.02783
391.52697,0.03244
390.03718,0.01527
388.54739,0.01371
387.05760,0.00936
385.56781,0.00503
384.07802,0.01163
382.58824,0.01038
381.09845,0.02174
379.60866,0.03313
378.11887,0.02073
376.62908,0.03554
375.13929,0.02554
373.64950,0.01557
372.15972,0.01091
370.66993,0.02694
369.18014,0.02623
367.69035,0.02555
366.20056,0.06218
364.71077,0.05504
363.22099,0.03208
361.73120,0.00914
360.24141,0.02228
358.75162,0.00176
357.26183,0.01996
355.77204,0.03819
354.28225,0.07015
352.79247,0.07495
351.30268,0.06809
349.81289,0.06126
348.32310,0.07085
346.83331,0.08092
345.34352,0.06731
343.85374,0.05372
342.36395,0.05038
340.87416,0.04819
339.38437,0.03973
337.89458,0.03130
336.40479,0.02919
334.91501,0.02889
333.42522,0.03705
331.93543,0.04522
330.44564,0.02748
328.95585,0.05379
327.46606,0.05430
325.97627,0.05482
324.48649,0.05807
322.99670,0.06516
321.50691,0.05139
320.01712,0.03764
318.52733,0.07805
317.03754,0.06435
315.54776,0.09032
314.05797,0.11632
312.56818,0.14425
311.07839,0.11493
309.58860,0.11056
308.09881,0.10622
306.60902,0.07988
305.11924,0.06256
303.62945,0.05099
302.13966,0.03945
300.64987,0.00176
299.16008,0.00176
