1778.52000,0.00805
1777.03021,0.00525
1775.54042,0.00274
1774.05063,0.00078
1772.56085,0.01557
1771.07106,0.01837
1769.58127,0.01752
1768.09148,0.01017
1766.60169,0.01225
1765.11190,0.00207
1763.62212,0.00656
1762.13233,0.00375
1760.64254,0.01089
1759.15275,0.02068
1757.66296,0.00984
1756.17317,0.00373
1754.68339,0.00653
1753.19360,0.00674
1751.70381,0.00358
1750.21402,0.01064
1748.72423,0.01014
1747.23444,0.00888
1745.74465,0.00974
1744.25487,0.01141
1742.76508,0.01205
1741.27529,0.01063
1739.78550,0.00375
1738.29571,0.01470
1736.80592,0.02176
1735.31614,0.03564
1733.82635,0.02261
1732.33656,0.01981
1730.84677,0.01781
1729.35698,0.01454
1727.86719,0.01416
1726.37740,0.01381
1724.88762,0.01060
1723.39783,0.00821
1721.90804,0.00375
1720.41825,0.01325
1718.92846,0.00605
1717.43867,0.02032
1715.94889,0.03042
1714.45910,0.02329
1712.96931,0.01358
1711.47952,0.01539
1709.98973,0.01592
1708.49994,0.00000
1707.01016,0.00502
1705.52037,0.01007
1704.03058,0.01148
1702.54079,0.00691
1701.05100,0.01072
1699.56121,0.00671
1698.07142,0.00535
1696.58164,0.00375
1695.09185,0.01988
1693.60206,0.01486
1692.11227,0.01745
1690.62248,0.00726
1689.13269,0.01748
1687.64291,0.03530
1686.15312,0.02701
1684.66333,0.01900
1683.17354,0.03115
1681.68375,0.04228
1680.19396,0.02624
1678.70417,0.03428
1677.21439,0.02770
1675.72460,0.03815
1674.23481,0.02796
1672.74502,0.03374
1671.25523,0.04530
1669.76544,0.05271
1668.27566,0.06327
1666.78587,0.04144
1665.29608,0.04656
1663.80629,0.06217
1662.31650,0.06708
1660.82671,0.07149
1659.33693,0.06913
1657.84714,0.07700
1656.35735,0.06841
1654.86756,0.06665
1653.37777,0.07536
1651.88798,0.08803
1650.39819,0.06386
1648.90841,0.07997
1647.41862,0.07441
1645.92883,0.07815
1644.43904,0.08192
1642.94925,0.07434
1641.45946,0.08874
1639.96968,0.09272
1638.47989,0.08207
1636.99010,0.09446
1635.50031,0.08308
1634.01052,0.08585
1632.52073,0.09125
1631.03094,0.10504
1629.54116,0.09088
1628.05137,0.08956
1626.56158,0.07258
1625.07179,0.06007
1623.58200,0.06326
1622.09221,0.09498
1620.60243,0.10032
1619.11264,0.08189
1617.62285,0.08937
1616.13306,0.09870
1614.64327,0.08871
1613.15348,0.08398
1611.66370,0.09156
1610.17391,0.09131
1608.68412,0.09162
1607.19433,0.11208
1605.70454,0.10381
1604.21475,0.09321
1602.72496,0.08263
1601.23518,0.08358
1599.74539,0.09214
1598.25560,0.08608
1596.76581,0.07926
1595.27602,0.09940
1593.78623,0.10021
1592.29645,0.09059
1590.80666,0.09642
1589.31687,0.07038
1587.82708,0.08828
1586.33729,0.08373
1584.84750,0.11136
1583.35771,0.10241
1581.86793,0.09584
1580.37814,0.07595
1578.88835,0.07571
1577.39856,0.07365
1575.90877,0.07345
1574.41898,0.05759
1572.92920,0.06241
1571.43941,0.06254
1569.94962,0.05748
1568.45983,0.05243
1566.97004,0.04898
1565.48025,0.02699
1563.99047,0.03353
1562.50068,0.04165
1561.01089,0.04170
1559.52110,0.04883
1558.03131,0.01990
1556.54152,0.02238
1555.05173,0.02017
1553.56195,0.02034
1552.07216,0.03648
1550.58237,0.02938
1549.09258,0.02466
1547.60279,0.00375
1546.11300,0.00941
1544.62322,0.01432
1543.13343,0.02788
1541.64364,0.01846
1540.15385,0.02030
1538.66406,0.02217
1537.17427,0.02746
1535.68448,0.02807
1534.19470,0.01616
1532.70491,0.00375
1531.21512,0.01266
1529.72533,0.04434
1528.23554,0.03107
1526.74575,0.03065
1525.25597,0.03207
1523.76618,0.05836
1522.27639,0.06847
1520.78660,0.04095
1519.29681,0.03881
1517.80702,0.04193
1516.31724,0.03932
1514.82745,0.05007
1513.33766,0.04830
1511.84787,0.04655
1510.35808,0.04901
1508.86829,0.07083
1507.37850,0.06393
1505.88872,0.05313
1504.39893,0.04653
1502.90914,0.05748
1501.41935,0.03890
1499.92956,0.06480
1498.43977,0.06249
1496.94999,0.08007
1495.46020,0.09166
1493.97041,0.10014
1492.48062,0.11074
1490.99083,0.12319
1489.50104,0.11945
1488.01125,0.11862
1486.52147,0.11781
1485.03168,0.13193
1483.54189,0.14973
1482.05210,0.16887
1480.56231,0.18227
1479.07252,0.20067
1477.58274,0.20262
1476.09295,0.23781
1474.60316,0.23327
1473.11337,0.23242
1471.62358,0.23526
1470.13379,0.23472
1468.64401,0.23839
1467.15422,0.26378
1465.66443,0.27286
1464.17464,0.28196
1462.68485,0.31867
1461.19506,0.36795
1459.70527,0.39870
1458.21549,0.45326
1456.72570,0.48641
1455.23591,0.54573
1453.74612,0.59435
1452.25633,0.65084
1450.76654,0.70030
1449.27676,0.71004
1447.78697,0.67483
1446.29718,0.66736
1444.80739,0.66581
1443.31760,0.66427
1441.82781,0.60799
1440.33802,0.53630
1438.84824,0.50935
1437.35845,0.51170
1435.86866,0.47513
1434.37887,0.47570
1432.88908,0.52284
1431.39929,0.56268
1429.90951,0.61692
1428.41972,0.67433
1426.92993,0.77699
1425.44014,0.84491
1423.95035,0.87494
1422.46056,0.90499
1420.97078,0.88121
1419.48099,0.93745
1417.99120,0.95372
1416.50141,0.95904
1415.01162,0.91941
1413.52183,0.91326
1412.03204,0.85277
1410.54226,0.77922
1409.05247,0.68635
1407.56268,0.63690
1406.07289,0.58043
1404.58310,0.55731
1403.09331,0.53421
1401.60353,0.47049
1400.11374,0.40679
1398.62395,0.39226
1397.13416,0.34613
1395.64437,0.29061
1394.15458,0.23119
1392.66479,0.22539
1391.17501,0.17046
1389.68522,0.13935
1388.19543,0.11951
1386.70564,0.10689
1385.21585,0.09428
1383.72606,0.06144
1382.23628,0.04431
1380.74649,0.04473
1379.25670,0.01640
1377.76691,0.01504
1376.27712,0.02310
1374.78733,0.00375
1373.29755,0.01304
1371.80776,0.00849
1370.31797,0.02672
1368.82818,0.01949
1367.33839,0.01227
1365.84860,0.00914
1364.35881,0.03557
1362.86903,0.04869
1361.37924,0.05086
1359.88945,0.08756
1358.39966,0.12638
1356.90987,0.13987
1355.42008,0.17821
1353.93030,0.25501
1352.44051,0.27053
1350.95072,0.28607
1349.46093,0.37785
1347.97114,0.44927
1346.48135,0.48514
1344.99156,0.59635
1343.50178,0.67463
1342.01199,0.70744
1340.52220,0.74970
1339.03241,0.83250
1337.54262,0.87663
1336.05283,0.92693
1334.56305,0.97725
1333.07326,0.97570
1331.58347,0.98490
1330.09368,0.96013
1328.60389,0.95525
1327.11410,0.95746
1325.62432,0.94166
1324.13453,0.92954
1322.64474,0.87770
1321.15495,0.81281
1319.66516,0.78129
1318.17537,0.74979
1316.68558,0.69360
1315.19580,0.64267
1313.70601,0.59386
1312.21622,0.54298
1310.72643,0.50859
1309.23664,0.50351
1307.74685,0.46813
1306.25707,0.41290
1304.76728,0.38698
1303.27749,0.36109
1301.78770,0.32110
1300.29791,0.29316
1298.80812,0.24119
1297.31834,0.21461
1295.82855,0.16505
1294.33876,0.15917
1292.84897,0.13319
1291.35918,0.10226
1289.86939,0.10521
1288.37960,0.10819
1286.88982,0.07969
1285.40003,0.11579
1283.91024,0.11087
1282.42045,0.09839
1280.93066,0.06371
1279.44087,0.05965
1277.95109,0.07052
1276.46130,0.03983
1274.97151,0.03480
1273.48172,0.02979
1271.99193,0.03212
1270.50214,0.04154
1269.01235,0.04288
1267.52257,0.02594
1266.03278,0.02497
1264.54299,0.01279
1263.05320,0.02338
1261.56341,0.03124
1260.07362,0.03913
1258.58384,0.04274
1257.09405,0.00375
1255.60426,0.00410
1254.11447,0.01949
1252.62468,0.03934
1251.13489,0.02811
1249.64511,0.02082
1248.15532,0.01199
1246.66553,0.02292
1245.17574,0.03388
1243.68595,0.01963
1242.19616,0.00986
1240.70637,0.01867
1239.21659,0.02096
1237.72680,0.01100
1236.23701,0.03348
1234.74722,0.02800
1233.25743,0.02399
1231.76764,0.02001
1230.27786,0.01069
1228.78807,0.00375
1227.29828,0.01243
1225.80849,0.02139
1224.31870,0.03326
1222.82891,0.04881
1221.33912,0.02857
1219.84934,0.03228
1218.35955,0.03600
1216.86976,0.03884
1215.37997,0.04092
1213.89018,0.06081
1212.40039,0.07601
1210.91061,0.06613
1209.42082,0.06047
1207.93103,0.07104
1206.44124,0.08163
1204.95145,0.05512
1203.46166,0.06341
1201.97188,0.05578
1200.48209,0.05366
1198.99230,0.06150
1197.50251,0.06597
1196.01272,0.05921
1194.52293,0.05863
1193.03314,0.05807
1191.54336,0.04094
1190.05357,0.01284
1188.56378,0.01981
1187.07399,0.01870
1185.58420,0.03669
1184.09441,0.03118
1182.60463,0.03171
1181.11484,0.03227
1179.62505,0.02762
1178.13526,0.02247
1176.64547,0.00375
1175.15568,0.01080
1173.66589,0.01580
1172.17611,0.02081
1170.68632,0.02455
1169.19653,0.02831
1167.70674,0.03392
1166.21695,0.01655
1164.72716,0.02640
1163.23738,0.04071
1161.74759,0.06316
1160.25780,0.06549
1158.76801,0.08106
1157.27822,0.09665
1155.78843,0.09070
1154.29865,0.11797
1152.80886,0.09873
1151.31907,0.11873
1149.82928,0.13065
1148.33949,0.15567
1146.84970,0.14071
1145.35991,0.12578
1143.87013,0.13074
1142.38034,0.14253
1140.89055,0.16113
1139.40076,0.17113
1137.91097,0.19423
1136.42118,0.19147
1134.93140,0.20809
1133.44161,0.22472
1131.95182,0.25969
1130.46203,0.27193
1128.97224,0.26720
1127.48245,0.23086
1125.99266,0.22487
1124.50288,0.23225
1123.01309,0.25925
1121.52330,0.28628
1120.03351,0.28432
1118.54372,0.27819
1117.05393,0.27261
1115.56415,0.26968
1114.07436,0.25134
1112.58457,0.24426
1111.09478,0.23722
1109.60499,0.23281
1108.11520,0.24254
1106.62542,0.27819
1105.13563,0.26941
1103.64584,0.22562
1102.15605,0.21218
1100.66626,0.21785
1099.17647,0.22355
1097.68668,0.21620
1096.19690,0.22117
1094.70711,0.20968
1093.21732,0.19535
1091.72753,0.20483
1090.23774,0.20035
1088.74795,0.19589
1087.25817,0.19159
1085.76838,0.19071
1084.27859,0.19064
1082.78880,0.20367
1081.29901,0.20287
1079.80922,0.17987
1078.31943,0.18774
1076.82965,0.19564
1075.33986,0.18866
1073.85007,0.21150
1072.36028,0.20536
1070.87049,0.22982
1069.38070,0.26321
1067.89092,0.27753
1066.40113,0.29187
1064.91134,0.34206
1063.42155,0.39044
1061.93176,0.46813
1060.44197,0.52258
1058.95219,0.61705
1057.46240,0.66187
1055.97261,0.70671
1054.48282,0.77773
1052.99303,0.91465
1051.50324,0.92950
1050.01345,0.96477
1048.52367,0.93837
1047.03388,0.92702
1045.54409,0.91569
1044.05430,0.87498
1042.56451,0.81572
1041.07472,0.76015
1039.58494,0.66644
1038.09515,0.57275
1036.60536,0.56510
1035.11557,0.55747
1033.62578,0.50595
1032.13599,0.42203
1030.64620,0.36559
1029.15642,0.28277
1027.66663,0.27004
1026.17684,0.25733
1024.68705,0.20674
1023.19726,0.18362
1021.70747,0.16681
1020.21769,0.14453
1018.72790,0.11809
1017.23811,0.11403
1015.74832,0.10999
1014.25853,0.10245
1012.76874,0.08735
1011.27896,0.09398
1009.78917,0.05095
1008.29938,0.03776
1006.80959,0.03988
1005.31980,0.04203
1003.83001,0.04172
1002.34022,0.02496
1000.85044,0.01895
999.36065,0.03597
997.87086,0.03079
996.38107,0.02564
994.89128,0.02051
993.40149,0.05226
991.91171,0.07385
990.42192,0.08370
988.93213,0.08991
987.44234,0.09065
985.95255,0.09142
984.46276,0.09745
982.97297,0.07473
981.48319,0.06407
979.99340,0.05840
978.50361,0.05969
977.01382,0.06100
975.52403,0.01540
974.03424,0.02369
972.54446,0.00402
971.05467,0.00528
969.56488,0.01257
968.07509,0.00812
966.58530,0.00370
965.09551,0.01498
963.60573,0.02682
962.11594,0.02718
960.62615,0.02808
959.13636,0.02129
957.64657,0.01453
956.15678,0.00375
954.66699,0.02330
953.17721,0.05752
951.68742,0.06614
950.19763,0.06512
948.70784,0.06412
947.21805,0.07726
945.72826,0.08049
944.23848,0.09891
942.74869,0.12075
941.25890,0.13974
939.76911,0.13706
938.27932,0.13440
936.78953,0.14981
935.29974,0.17203
933.80996,0.18383
932.32017,0.22624
930.83038,0.22906
929.34059,0.23191
927.85080,0.27099
926.36101,0.28082
924.87123,0.31106
923.38144,0.32747
921.89165,0.36247
920.40186,0.39749
918.91207,0.50915
917.42228,0.62945
915.93250,0.76024
914.44271,0.97864
912.95292,1.09444
911.46313,1.21027
909.97334,1.41829
908.48355,1.55992
906.99376,1.72536
905.50398,1.89371
904.01419,1.90691
902.52440,1.92014
901.03461,1.98476
899.54482,2.00000
898.05503,1.90153
896.56525,1.71523
895.07546,1.55955
893.58567,1.40390
892.09588,1.12617
890.60609,0.90990
889.11630,0.69183
887.62651,0.49654
886.13673,0.42689
884.64694,0.35727
883.15715,0.26270
881.66736,0.17339
880.17757,0.11548
878.68778,0.10021
877.19800,0.08496
875.70821,0.06216
874.21842,0.03833
872.72863,0.02760
871.23884,0.01010
869.74905,0.01994
868.25927,0.02981
866.76948,0.01186
865.27969,0.02139
863.78990,0.04140
862.30011,0.03868
860.81032,0.04175
859.32053,0.04484
857.83075,0.07043
856.34096,0.08220
854.85117,0.09843
853.36138,0.09064
851.87159,0.09359
850.38180,0.09656
848.89202,0.12728
847.40223,0.16533
845.91244,0.16106
844.42265,0.16910
842.93286,0.17717
841.44307,0.17114
839.95329,0.19755
838.46350,0.19732
836.97371,0.22666
835.48392,0.22753
833.99413,0.22842
832.50434,0.23326
831.01455,0.20649
829.52477,0.19438
828.03498,0.15275
826.54519,0.14422
825.05540,0.13572
823.56561,0.13469
822.07582,0.13604
820.58604,0.13585
819.09625,0.12770
817.60646,0.11958
816.11667,0.10508
814.62688,0.10786
813.13709,0.11354
811.64730,0.09546
810.15752,0.09387
808.66773,0.09230
807.17794,0.08657
805.68815,0.09708
804.19836,0.10526
802.70857,0.12053
801.21879,0.13582
799.72900,0.14695
798.23921,0.11261
796.74942,0.10470
795.25963,0.10571
793.76984,0.10675
792.28006,0.11826
790.79027,0.12640
789.30048,0.14032
787.81069,0.15792
786.32090,0.18143
784.83111,0.20496
783.34132,0.24356
781.85154,0.27145
780.36175,0.29153
778.87196,0.30876
777.38217,0.32601
775.89238,0.36551
774.40259,0.34699
772.91281,0.35412
771.42302,0.34506
769.93323,0.33603
768.44344,0.27186
766.95365,0.26340
765.46386,0.21182
763.97407,0.17648
762.48429,0.15999
760.99450,0.14352
759.50471,0.10695
758.01492,0.08948
756.52513,0.09584
755.03534,0.09084
753.54556,0.08587
752.05577,0.07975
750.56598,0.07077
749.07619,0.07071
747.58640,0.06584
746.09661,0.06099
744.60683,0.04297
743.11704,0.02705
741.62725,0.02555
740.13746,0.02550
738.64767,0.02549
737.15788,0.01621
735.66809,0.01533
734.17831,0.00375
732.68852,0.00552
731.19873,0.00732
729.70894,0.02967
728.21915,0.01465
726.72936,0.00699
725.23958,0.00405
723.74979,0.02155
722.26000,0.03908
720.77021,0.01114
719.28042,0.01068
717.79063,0.00554
716.30084,0.00356
714.81106,0.00161
713.32127,0.02421
711.83148,0.01651
710.34169,0.00569
708.85190,0.00993
707.36211,0.01420
705.87233,0.03771
704.38254,0.04608
702.89275,0.04114
701.40296,0.04577
699.91317,0.05042
698.42338,0.07196
696.93360,0.09718
695.44381,0.08139
693.95402,0.09947
692.46423,0.11758
690.97444,0.14159
689.48465,0.14524
687.99486,0.17009
686.50508,0.17980
685.01529,0.18954
683.52550,0.23093
682.03571,0.23261
680.54592,0.26412
679.05613,0.27748
677.56635,0.29087
676.07656,0.30127
674.58677,0.26621
673.09698,0.23536
671.60719,0.21930
670.11740,0.20326
668.62761,0.20438
667.13783,0.19062
665.64804,0.17047
664.15825,0.15035
662.66846,0.13248
661.17867,0.10444
659.68888,0.07590
658.19910,0.06267
656.70931,0.04947
655.21952,0.04114
653.72973,0.05087
652.23994,0.05591
650.75015,0.04333
649.26037,0.03078
647.77058,0.04165
646.28079,0.02980
644.79100,0.01432
643.30121,0.01938
641.81142,0.02447
640.32163,0.02213
638.83185,0.03943
637.34206,0.01570
635.85227,0.01265
634.36248,0.00962
632.87269,0.00375
631.38290,0.01139
629.89312,0.01853
628.40333,0.02453
626.91354,0.03054
625.42375,0.02365
623.93396,0.02906
622.44417,0.03606
620.95438,0.04310
619.46460,0.05747
617.97481,0.04233
616.48502,0.05623
614.99523,0.06807
613.50544,0.07993
612.01565,0.14280
610.52587,0.19418
609.03608,0.20847
607.54629,0.22514
606.05650,0.24183
604.56671,0.29331
603.07692,0.33280
601.58714,0.34969
600.09735,0.36661
598.60756,0.43179
597.11777,0.45307
595.62798,0.44928
594.13819,0.44198
592.64840,0.43471
591.15862,0.36092
589.66883,0.31356
588.17904,0.32139
586.68925,0.29735
585.19946,0.27334
583.70967,0.18294
582.21989,0.17309
580.73010,0.13268
579.24031,0.09229
577.75052,0.08200
576.26073,0.08872
574.77094,0.06357
573.28115,0.05531
571.79137,0.04707
570.30158,0.03402
568.81179,0.05316
567.32200,0.06146
565.83221,0.06980
564.34242,0.12247
562.85264,0.12471
561.36285,0.14214
559.87306,0.16939
558.38327,0.19667
556.89348,0.17705
555.40369,0.15849
553.91391,0.16898
552.42412,0.17950
550.93433,0.18716
549.44454,0.18465
547.95475,0.18844
546.46496,0.19017
544.97517,0.19191
543.48539,0.22559
541.99560,0.28281
540.50581,0.29901
539.01602,0.31524
537.52623,0.35319
536.03644,0.40084
534.54666,0.44093
533.05687,0.45857
531.56708,0.47622
530.07729,0.53103
528.58750,0.60077
527.09771,0.61745
525.60792,0.63416
524.11814,0.69508
522.62835,0.72282
521.13856,0.80758
519.64877,0.84191
518.15898,0.87626
516.66919,0.93259
515.17941,0.96229
513.68962,0.93566
512.19983,0.90906
510.71004,0.88209
509.22025,0.85462
507.73046,0.75528
506.24068,0.71518
504.75089,0.67511
503.26110,0.54943
501.77131,0.41150
500.28152,0.36326
498.79173,0.31505
497.30194,0.22242
495.81216,0.23439
494.32237,0.20481
492.83258,0.17526
491.34279,0.14182
489.85300,0.11127
488.36321,0.05957
486.87343,0.06568
485.38364,0.07181
483.89385,0.11195
482.40406,0.14349
480.91427,0.13806
479.42448,0.13266
477.93469,0.14937
476.44491,0.14441
474.95512,0.16509
473.46533,0.18580
471.97554,0.19346
470.48575,0.17421
468.99596,0.18793
467.50618,0.18887
466.01639,0.18983
464.52660,0.14087
463.03681,0.09848
461.54702,0.10527
460.05723,0.11208
458.56745,0.10270
457.07766,0.09178
455.58787,0.07605
454.09808,0.06035
452.60829,0.05394
451.11850,0.02351
449.62871,0.02684
448.13893,0.03018
446.64914,0.01107
445.15935,0.00375
443.66956,0.05584
442.17977,0.06064
440.68998,0.06546
439.20020,0.07187
437.71041,0.06707
436.22062,0.06386
434.73083,0.06068
433.24104,0.04889
431.75125,0.06379
430.26146,0.07284
428.77168,0.08191
427.28189,0.07257
425.79210,0.03947
424.30231,0.03384
422.81252,0.02824
421.32273,0.06188
419.83295,0.04874
418.34316,0.03406
416.85337,0.01940
415.36358,0.03196
413.87379,0.04246
412.38400,0.04409
410.89422,0.04574
409.40443,0.06781
407.91464,0.03997
406.42485,0.03254
404.93506,0.02998
403.44527,0.02744
401.95548,0.02088
400.46570,0.00675
398.97591,0.01514
397.48612,0.02355
395.99633,0.03303
394.50654,0.01744
393.01675,0.01520
391.52697,0.01069
390.03718,0.01901
388.54739,0.05821
387.05760,0.04201
385.56781,0.02583
384.07802,0.01700
382.58824,0.00375
381.09845,0.00573
379.60866,0.00773
378.11887,0.01447
376.62908,0.01024
375.13929,0.01389
373.64950,0.01756
372.15972,0.01368
370.66993,0.03544
369.18014,0.02506
367.69035,0.01472
366.20056,0.03062
364.71077,0.06302
363.22099,0.06459
361.73120,0.06618
360.24141,0.06258
358.75162,0.02396
357.26183,0.02641
355.77204,0.02889
354.28225,0.03218
352.79247,0.09772
351.30268,0.09112
349.81289,0.08455
348.32310,0.09891
346.83331,0.09788
345.34352,0.08367
343.85374,0.06948
342.36395,0.07610
340.87416,0.05817
339.38437,0.04641
337.89458,0.03467
336.40479,0.00924
334.91501,0.05723
333.42522,0.06147
331.93543,0.06572
330.44564,0.04059
328.95585,0.05496
327.46606,0.06517
325.97627,0.07541
324.48649,0.06710
322.99670,0.05307
321.50691,0.05175
320.01712,0.05045
318.52733,0.08931
317.03754,0.10361
315.54776,0.10317
314.05797,0.10275
312.56818,0.15870
311.07839,0.14461
309.58860,0.14374
308.09881,0.14290
306.60902,0.10247
305.11924,0.08299
303.62945,0.04836
302.13966,0.01376
300.64987,0.00375
299.16008,0.00375
