1778.52000,0.02435
1777.03021,0.00396
1775.54042,0.00950
1774.05063,0.01001
1772.56085,0.01009
1771.07106,0.01890
1769.58127,0.01674
1768.09148,0.01162
1766.60169,0.01317
1765.11190,0.01428
1763.62212,0.00373
1762.13233,0.00788
1760.64254,0.00746
1759.15275,0.01417
1757.66296,0.00876
1756.17317,0.00383
1754.68339,0.00924
1753.19360,0.00825
1751.70381,0.00706
1750.21402,0.01071
1748.72423,0.00704
1747.23444,0.01028
1745.74465,0.01079
1744.25487,0.01499
1742.76508,0.01600
1741.27529,0.00581
1739.78550,0.00940
1738.29571,0.00544
1736.80592,0.02360
1735.31614,0.01244
1733.82635,0.01094
1732.33656,0.00304
1730.84677,0.00914
1729.35698,0.01504
1727.86719,0.01547
1726.37740,0.00514
1724.88762,0.00493
1723.39783,0.01505
1721.90804,0.00846
1720.41825,0.00373
1718.92846,0.00729
1717.43867,0.01546
1715.94889,0.00715
1714.45910,0.00940
1712.96931,0.01168
1711.47952,0.00390
1709.98973,0.01288
1708.49994,0.01202
1707.01016,0.00935
1705.52037,0.00671
1704.03058,0.00661
1702.54079,0.00585
1701.05100,0.00373
1699.56121,0.01499
1698.07142,0.01550
1696.58164,0.01168
1695.09185,0.01728
1693.60206,0.02725
1692.11227,0.01663
1690.62248,0.01061
1689.13269,0.01332
1687.64291,0.01698
1686.15312,0.00576
1684.66333,0.02345
1683.17354,0.01686
1681.68375,0.02107
1680.19396,0.01957
1678.70417,0.01764
1677.21439,0.02398
1675.72460,0.02852
1674.23481,0.02781
1672.74502,0.01703
1671.25523,0.02851
1669.76544,0.04827
1668.27566,0.04444
1666.78587,0.04018
1665.29608,0.03801
1663.80629,0.03608
1662.31650,0.04748
1660.82671,0.04194
1659.33693,0.06141
1657.84714,0.05316
1656.35735,0.05732
1654.86756,0.05096
1653.37777,0.04874
1651.88798,0.06718
1650.39819,0.05333
1648.90841,0.06448
1647.41862,0.06718
1645.92883,0.06107
1644.43904,0.05499
1642.94925,0.07105
1641.45946,0.06513
1639.96968,0.07345
1638.47989,0.06872
1636.99010,0.07869
1635.50031,0.06622
1634.01052,0.06524
1632.52073,0.06588
1631.03094,0.08603
1629.54116,0.08855
1628.05137,0.09179
1626.56158,0.08473
1625.07179,0.06899
1623.58200,0.04686
1622.09221,0.06256
1620.60243,0.07554
1619.11264,0.08351
1617.62285,0.06582
1616.13306,0.08025
1614.64327,0.07545
1613.15348,0.07686
1611.66370,0.08013
1610.17391,0.07517
1608.68412,0.06588
1607.19433,0.07701
1605.70454,0.09161
1604.21475,0.08858
1602.72496,0.08557
1601.23518,0.06884
1599.74539,0.07734
1598.25560,0.08037
1596.76581,0.07700
1595.27602,0.08557
1593.78623,0.08408
1592.29645,0.08354
1590.80666,0.06903
1589.31687,0.07312
1587.82708,0.07287
1586.33729,0.06325
1584.84750,0.08574
1583.35771,0.08695
1581.86793,0.08313
1580.37814,0.07223
1578.88835,0.06479
1577.39856,0.04890
1575.90877,0.05984
1574.41898,0.04285
1572.92920,0.05637
1571.43941,0.05386
1569.94962,0.05425
1568.45983,0.05466
1566.97004,0.04351
1565.48025,0.03675
1563.99047,0.02382
1562.50068,0.02948
1561.01089,0.01248
1559.52110,0.02964
1558.03131,0.02552
1556.54152,0.02050
1555.05173,0.00978
1553.56195,0.00000
1552.07216,0.03098
1550.58237,0.01591
1549.09258,0.00706
1547.60279,0.01863
1546.11300,0.00546
1544.62322,0.01181
1543.13343,0.00419
1541.64364,0.00924
1540.15385,0.01477
1538.66406,0.02032
1537.17427,0.01466
1535.68448,0.01269
1534.19470,0.01007
1532.70491,0.00677
1531.21512,0.00373
1529.72533,0.00882
1528.23554,0.00728
1526.74575,0.01997
1525.25597,0.03315
1523.76618,0.04773
1522.27639,0.03780
1520.78660,0.02928
1519.29681,0.03705
1517.80702,0.03385
1516.31724,0.03616
1514.82745,0.03553
1513.33766,0.04638
1511.84787,0.05725
1510.35808,0.05347
1508.86829,0.06210
1507.37850,0.06365
1505.88872,0.05811
1504.39893,0.06383
1502.90914,0.05261
1501.41935,0.06548
1499.92956,0.06715
1498.43977,0.06288
1496.94999,0.08293
1495.46020,0.07641
1493.97041,0.08023
1492.48062,0.09142
1490.99083,0.11752
1489.50104,0.12096
1488.01125,0.12510
1486.52147,0.12928
1485.03168,0.13141
1483.54189,0.15076
1482.05210,0.15087
1480.56231,0.17348
1479.07252,0.18854
1477.58274,0.19721
1476.09295,0.20934
1474.60316,0.22173
1473.11337,0.21603
1471.62358,0.23488
1470.13379,0.22946
1468.64401,0.22910
1467.15422,0.22717
1465.66443,0.23935
1464.17464,0.25156
1462.68485,0.28178
1461.19506,0.32716
1459.70527,0.38425
1458.21549,0.44067
1456.72570,0.46687
1455.23591,0.51188
1453.74612,0.60024
1452.25633,0.63338
1450.76654,0.66219
1449.27676,0.67131
1447.78697,0.68252
1446.29718,0.66809
1444.80739,0.65768
1443.31760,0.64731
1441.82781,0.62836
1440.33802,0.53998
1438.84824,0.51100
1437.35845,0.49052
1435.86866,0.50833
1434.37887,0.52641
1432.88908,0.55711
1431.39929,0.59150
1429.90951,0.62981
1428.41972,0.69451
1426.92993,0.74571
1425.44014,0.81274
1423.95035,0.83694
1422.46056,0.86116
1420.97078,0.90420
1419.48099,0.94910
1417.99120,0.97500
1416.50141,1.00344
1415.01162,0.94481
1413.52183,0.91027
1412.03204,0.87438
1410.54226,0.80551
1409.05247,0.72084
1407.56268,0.64973
1406.07289,0.57886
1404.58310,0.55031
1403.09331,0.52178
1401.60353,0.48996
1400.11374,0.40979
1398.62395,0.35486
1397.13416,0.32334
1395.64437,0.27327
1394.15458,0.22529
1392.66479,0.19979
1391.17501,0.17248
1389.68522,0.13901
1388.19543,0.12161
1386.70564,0.11466
1385.21585,0.10774
1383.72606,0.06817
1382.23628,0.04559
1380.74649,0.02785
1379.25670,0.03581
1377.76691,0.02407
1376.27712,0.01557
1374.78733,0.00618
1373.29755,0.00483
1371.80776,0.00373
1370.31797,0.01065
1368.82818,0.02056
1367.33839,0.03050
1365.84860,0.02511
1364.35881,0.03464
1362.86903,0.04442
1361.37924,0.04804
1359.88945,0.07758
1358.39966,0.09913
1356.90987,0.15393
1355.42008,0.17690
1353.93030,0.25719
1352.44051,0.27894
1350.95072,0.30072
1349.46093,0.37856
1347.97114,0.46055
1346.48135,0.56228
1344.99156,0.61658
1343.50178,0.67985
1342.01199,0.74452
1340.52220,0.79752
1339.03241,0.82556
1337.54262,0.88044
1336.05283,0.91243
1334.56305,0.94444
1333.07326,0.96066
1331.58347,1.01541
1330.09368,0.97690
1328.60389,0.93291
1327.11410,0.88092
1325.62432,0.90184
1324.13453,0.89666
1322.64474,0.82801
1321.15495,0.81005
1319.66516,0.77376
1318.17537,0.73750
1316.68558,0.69852
1315.19580,0.62380
1313.70601,0.60068
1312.21622,0.54435
1310.72643,0.52723
1309.23664,0.47347
1307.74685,0.43967
1306.25707,0.40727
1304.76728,0.37157
1303.27749,0.33589
1301.78770,0.30998
1300.29791,0.28066
1298.80812,0.25617
1297.31834,0.21131
1295.82855,0.16166
1294.33876,0.14824
1292.84897,0.11216
1291.35918,0.08619
1289.86939,0.08476
1288.37960,0.08336
1286.88982,0.08382
1285.40003,0.07215
1283.91024,0.09420
1282.42045,0.08235
1280.93066,0.07786
1279.44087,0.06675
1277.95109,0.03847
1276.46130,0.04139
1274.97151,0.03562
1273.48172,0.02987
1271.99193,0.02850
1270.50214,0.03220
1269.01235,0.02561
1267.52257,0.03371
1266.03278,0.01708
1264.54299,0.01561
1263.05320,0.02240
1261.56341,0.01341
1260.07362,0.00444
1258.58384,0.00833
1257.09405,0.02371
1255.60426,0.01343
1254.11447,0.01350
1252.62468,0.00373
1251.13489,0.00876
1249.64511,0.01816
1248.15532,0.01843
1246.66553,0.01940
1245.17574,0.02040
1243.68595,0.02256
1242.19616,0.03232
1240.70637,0.01780
1239.21659,0.01752
1237.72680,0.01817
1236.23701,0.03834
1234.74722,0.03354
1233.25743,0.02006
1231.76764,0.00660
1230.27786,0.00898
1228.78807,0.00474
1227.29828,0.00373
1225.80849,0.02534
1224.31870,0.03871
1222.82891,0.04547
1221.33912,0.03460
1219.84934,0.03601
1218.35955,0.03745
1216.86976,0.03697
1215.37997,0.04934
1213.89018,0.05578
1212.40039,0.06362
1210.91061,0.04879
1209.42082,0.04476
1207.93103,0.05061
1206.44124,0.05648
1204.95145,0.04816
1203.46166,0.04721
1201.97188,0.04558
1200.48209,0.05682
1198.99230,0.04516
1197.50251,0.05232
1196.01272,0.04874
1194.52293,0.04735
1193.03314,0.04599
1191.54336,0.03995
1190.05357,0.02476
1188.56378,0.02359
1187.07399,0.00570
1185.58420,0.00503
1184.09441,0.01997
1182.60463,0.02141
1181.11484,0.02287
1179.62505,0.00373
1178.13526,0.00983
1176.64547,0.01320
1175.15568,0.00353
1173.66589,0.00526
1172.17611,0.00954
1170.68632,0.01075
1169.19653,0.01199
1167.70674,0.00373
1166.21695,0.01538
1164.72716,0.01353
1163.23738,0.03325
1161.74759,0.02915
1160.25780,0.04548
1158.76801,0.05576
1157.27822,0.06606
1155.78843,0.08383
1154.29865,0.08307
1152.80886,0.09034
1151.31907,0.09627
1149.82928,0.10635
1148.33949,0.13226
1146.84970,0.13460
1145.35991,0.13695
1143.87013,0.12695
1142.38034,0.13784
1140.89055,0.14760
1139.40076,0.16151
1137.91097,0.15734
1136.42118,0.17015
1134.93140,0.18253
1133.44161,0.19493
1131.95182,0.22386
1130.46203,0.25213
1128.97224,0.24741
1127.48245,0.24478
1125.99266,0.23690
1124.50288,0.23707
1123.01309,0.24105
1121.52330,0.24504
1120.03351,0.24758
1118.54372,0.24601
1117.05393,0.24377
1115.56415,0.24019
1114.07436,0.22379
1112.58457,0.22198
1111.09478,0.22018
1109.60499,0.20821
1108.11520,0.22354
1106.62542,0.22858
1105.13563,0.23250
1103.64584,0.21741
1102.15605,0.20763
1100.66626,0.19878
1099.17647,0.18996
1097.68668,0.18872
1096.19690,0.18591
1094.70711,0.19595
1093.21732,0.17072
1091.72753,0.18081
1090.23774,0.17545
1088.74795,0.17012
1087.25817,0.16378
1085.76838,0.18451
1084.27859,0.16424
1082.78880,0.16828
1081.29901,0.16525
1079.80922,0.17507
1078.31943,0.16658
1076.82965,0.15812
1075.33986,0.15999
1073.85007,0.16601
1072.36028,0.17802
1070.87049,0.20655
1069.38070,0.21952
1067.89092,0.22587
1066.40113,0.23224
1064.91134,0.29089
1063.42155,0.35966
1061.93176,0.42523
1060.44197,0.51719
1058.95219,0.58625
1057.46240,0.61844
1055.97261,0.65065
1054.48282,0.74110
1052.99303,0.80109
1051.50324,0.80586
1050.01345,0.78912
1048.52367,0.81182
1047.03388,0.81312
1045.54409,0.81444
1044.05430,0.80466
1042.56451,0.72546
1041.07472,0.67586
1039.58494,0.62948
1038.09515,0.56365
1036.60536,0.52970
1035.11557,0.49578
1033.62578,0.48044
1032.13599,0.41058
1030.64620,0.35082
1029.15642,0.29774
1027.66663,0.27012
1026.17684,0.24253
1024.68705,0.19685
1023.19726,0.18673
1021.70747,0.15852
1020.21769,0.11956
1018.72790,0.11271
1017.23811,0.10623
1015.74832,0.09978
1014.25853,0.08544
1012.76874,0.06539
1011.27896,0.09442
1009.78917,0.08634
1008.29938,0.05239
1006.80959,0.04528
1005.31980,0.03819
1003.83001,0.01439
1002.34022,0.02087
1000.85044,0.01523
999.36065,0.01923
997.87086,0.02957
996.38107,0.03993
994.89128,0.04698
993.40149,0.04238
991.91171,0.06301
990.42192,0.05959
988.93213,0.08394
987.44234,0.09089
985.95255,0.09786
984.46276,0.10852
982.97297,0.10042
981.48319,0.06574
979.99340,0.05608
978.50361,0.05435
977.01382,0.05264
975.52403,0.03961
974.03424,0.03440
972.54446,0.02623
971.05467,0.01166
969.56488,0.00354
968.07509,0.00752
966.58530,0.01153
965.09551,0.00581
963.60573,0.01273
962.11594,0.02311
960.62615,0.00899
959.13636,0.00635
957.64657,0.00373
956.15678,0.01554
954.66699,0.02737
953.17721,0.01447
951.68742,0.02406
950.19763,0.03195
948.70784,0.03986
947.21805,0.06006
945.72826,0.05737
944.23848,0.08495
942.74869,0.09881
941.25890,0.11612
939.76911,0.11822
938.27932,0.12034
936.78953,0.13475
935.29974,0.14598
933.80996,0.17304
932.32017,0.22144
930.83038,0.21749
929.34059,0.21357
927.85080,0.22560
926.36101,0.26287
924.87123,0.29878
923.38144,0.28659
921.89165,0.33321
920.40186,0.37986
918.91207,0.45483
917.42228,0.61326
915.93250,0.77607
914.44271,0.94601
912.95292,1.04423
911.46313,1.14247
909.97334,1.35924
908.48355,1.53019
906.99376,1.73531
905.50398,1.85726
904.01419,1.90061
902.52440,1.94399
901.03461,2.00000
899.54482,1.96962
898.05503,1.86661
896.56525,1.68203
895.07546,1.55798
893.58567,1.43396
892.09588,1.13324
890.60609,0.87449
889.11630,0.66024
887.62651,0.50055
886.13673,0.41618
884.64694,0.33184
883.15715,0.24649
881.66736,0.18454
880.17757,0.12811
878.68778,0.10483
877.19800,0.08158
875.70821,0.05617
874.21842,0.04682
872.72863,0.01733
871.23884,0.00552
869.74905,0.00461
868.25927,0.00373
866.76948,0.01776
865.27969,0.00637
863.78990,0.01609
862.30011,0.01689
860.81032,0.02300
859.32053,0.02912
857.83075,0.04489
856.34096,0.06092
854.85117,0.07377
853.36138,0.09190
851.87159,0.09597
850.38180,0.10006
848.89202,0.10429
847.40223,0.12527
845.91244,0.16026
844.42265,0.15918
842.93286,0.15811
841.44307,0.17599
839.95329,0.19067
838.46350,0.19736
836.97371,0.19788
835.48392,0.19981
833.99413,0.20175
832.50434,0.21954
831.01455,0.20411
829.52477,0.18619
828.03498,0.17746
826.54519,0.15970
825.05540,0.14196
823.56561,0.14178
822.07582,0.11985
820.58604,0.10643
819.09625,0.11090
817.60646,0.11541
816.11667,0.11443
814.62688,0.09331
813.13709,0.09421
811.64730,0.10202
810.15752,0.11053
808.66773,0.11907
807.17794,0.11916
805.68815,0.11422
804.19836,0.12100
802.70857,0.11887
801.21879,0.11675
799.72900,0.11994
798.23921,0.11535
796.74942,0.11308
795.25963,0.10613
793.76984,0.09921
792.28006,0.12887
790.79027,0.13862
789.30048,0.13532
787.81069,0.17766
786.32090,0.18472
784.83111,0.19181
783.34132,0.23032
781.85154,0.25763
780.36175,0.27236
778.87196,0.28309
777.38217,0.29385
775.89238,0.34738
774.40259,0.34066
772.91281,0.33189
771.42302,0.32143
769.93323,0.31100
768.44344,0.27778
766.95365,0.22029
765.46386,0.19079
763.97407,0.16910
762.48429,0.15718
760.99450,0.14529
759.50471,0.11496
758.01492,0.08925
756.52513,0.09129
755.03534,0.08464
753.54556,0.07802
752.05577,0.05538
750.56598,0.06004
749.07619,0.03493
747.58640,0.04811
746.09661,0.06132
744.60683,0.05874
743.11704,0.04106
741.62725,0.02546
740.13746,0.01458
738.64767,0.00373
737.15788,0.01703
735.66809,0.01729
734.17831,0.01161
732.68852,0.00699
731.19873,0.00239
729.70894,0.00401
728.21915,0.01345
726.72936,0.01008
725.23958,0.00994
723.74979,0.01395
722.26000,0.01799
720.77021,0.01723
719.28042,0.00802
717.79063,0.00571
716.30084,0.00812
714.81106,0.01056
713.32127,0.00373
711.83148,0.02306
710.34169,0.02660
708.85190,0.02569
707.36211,0.02481
705.87233,0.04033
704.38254,0.04970
702.89275,0.06092
701.40296,0.05497
699.91317,0.04905
698.42338,0.05232
696.93360,0.08151
695.44381,0.10638
693.95402,0.10960
692.46423,0.11286
690.97444,0.14719
689.48465,0.16412
687.99486,0.19575
686.50508,0.20391
685.01529,0.21210
683.52550,0.22454
682.03571,0.24160
680.54592,0.25959
679.05613,0.26868
677.56635,0.27778
676.07656,0.29791
674.58677,0.29629
673.09698,0.26444
671.60719,0.24167
670.11740,0.21892
668.62761,0.19791
667.13783,0.16547
665.64804,0.16239
664.15825,0.15933
662.66846,0.13453
661.17867,0.08866
659.68888,0.07559
658.19910,0.06873
656.70931,0.06189
655.21952,0.05531
653.72973,0.07282
652.23994,0.06789
650.75015,0.06665
649.26037,0.06544
647.77058,0.04569
646.28079,0.05988
644.79100,0.03788
643.30121,0.03596
641.81142,0.03406
640.32163,0.04124
638.83185,0.04455
637.34206,0.04238
635.85227,0.02304
634.36248,0.00373
632.87269,0.01588
631.38290,0.01201
629.89312,0.02397
628.40333,0.02003
626.91354,0.01612
625.42375,0.02495
623.93396,0.01707
622.44417,0.03270
620.95438,0.04837
619.46460,0.04468
617.97481,0.07266
616.48502,0.06627
614.99523,0.07779
613.50544,0.08933
612.01565,0.14169
610.52587,0.17551
609.03608,0.22013
607.54629,0.22558
606.05650,0.23105
604.56671,0.28903
603.07692,0.32343
601.58714,0.34158
600.09735,0.35975
598.60756,0.41050
597.11777,0.45691
595.62798,0.42152
594.13819,0.40667
592.64840,0.39184
591.15862,0.36088
589.66883,0.32971
588.17904,0.27657
586.68925,0.25496
585.19946,0.23338
583.70967,0.19061
582.21989,0.12862
580.73010,0.11021
579.24031,0.09181
577.75052,0.08605
576.26073,0.06358
574.77094,0.05671
573.28115,0.04094
571.79137,0.02518
570.30158,0.03787
568.81179,0.04784
567.32200,0.06218
565.83221,0.07655
564.34242,0.09415
562.85264,0.11063
561.36285,0.11406
559.87306,0.12360
558.38327,0.13316
556.89348,0.13827
555.40369,0.13218
553.91391,0.14135
552.42412,0.15055
550.93433,0.16309
549.44454,0.19010
547.95475,0.20933
546.46496,0.20671
544.97517,0.20410
543.48539,0.21425
541.99560,0.22716
540.50581,0.25190
539.01602,0.27667
537.52623,0.30387
536.03644,0.33911
534.54666,0.39043
533.05687,0.41093
531.56708,0.43147
530.07729,0.46681
528.58750,0.54709
527.09771,0.57388
525.60792,0.60070
524.11814,0.65287
522.62835,0.71125
521.13856,0.78638
519.64877,0.80515
518.15898,0.82395
516.66919,0.84232
515.17941,0.87079
513.68962,0.85757
512.19983,0.84438
510.71004,0.84473
509.22025,0.76855
507.73046,0.69492
506.24068,0.64102
504.75089,0.58715
503.26110,0.49182
501.77131,0.40338
500.28152,0.36024
498.79173,0.31712
497.30194,0.23609
495.81216,0.18946
494.32237,0.17988
492.83258,0.17032
491.34279,0.13889
489.85300,0.10383
488.36321,0.07520
486.87343,0.05966
485.38364,0.04414
483.89385,0.07220
482.40406,0.09799
480.91427,0.10260
479.42448,0.10724
477.93469,0.11064
476.44491,0.13469
474.95512,0.13538
473.46533,0.13610
471.97554,0.17375
470.48575,0.16099
468.99596,0.15560
467.50618,0.15206
466.01639,0.14854
464.52660,0.12213
463.03681,0.08107
461.54702,0.06880
460.05723,0.05656
458.56745,0.05683
457.07766,0.05713
455.58787,0.04220
454.09808,0.02730
452.60829,0.03409
451.11850,0.03150
449.62871,0.02572
448.13893,0.01997
446.64914,0.00600
445.15935,0.00373
443.66956,0.01439
442.17977,0.01475
440.68998,0.01513
439.20020,0.02334
437.71041,0.04990
436.22062,0.04646
434.73083,0.04305
433.24104,0.03714
431.75125,0.03217
430.26146,0.03788
428.77168,0.04361
427.28189,0.05430
425.79210,0.04553
424.30231,0.03563
422.81252,0.02576
421.32273,0.02967
419.83295,0.03314
418.34316,0.03079
416.85337,0.02846
415.36358,0.03636
413.87379,0.03764
412.38400,0.03515
410.89422,0.03269
409.40443,0.05398
407.91464,0.05054
406.42485,0.04299
404.93506,0.04590
403.44527,0.04883
401.95548,0.04205
400.46570,0.03872
398.97591,0.04344
397.48612,0.04819
395.99633,0.05067
394.50654,0.03850
393.01675,0.03816
391.52697,0.03371
390.03718,0.04429
388.54739,0.04572
387.05760,0.03733
385.56781,0.02896
384.07802,0.02817
382.58824,0.03337
381.09845,0.02851
379.60866,0.02367
378.11887,0.00373
376.62908,0.01724
375.13929,0.02550
373.64950,0.03379
372.15972,0.02880
370.66993,0.04768
369.18014,0.04561
367.69035,0.04356
366.20056,0.03707
364.71077,0.04229
363.22099,0.03813
361.73120,0.03400
360.24141,0.05694
358.75162,0.02627
357.26183,0.02852
355.77204,0.03079
354.28225,0.05611
352.79247,0.05442
351.30268,0.06719
349.81289,0.07998
348.32310,0.09784
346.83331,0.11251
345.34352,0.10028
343.85374,0.08807
342.36395,0.08196
340.87416,0.04057
339.38437,0.03061
337.89458,0.02068
336.40479,0.02392
334.91501,0.03819
333.42522,0.04010
331.93543,0.04204
330.44564,0.02956
328.95585,0.02994
327.46606,0.03562
325.97627,0.04132
324.48649,0.06767
322.99670,0.02208
321.50691,0.02120
320.01712,0.02035
318.52733,0.03763
317.03754,0.04646
315.54776,0.05977
314.05797,0.07311
312.56818,0.10424
311.07839,0.12829
309.58860,0.11798
308.09881,0.10769
306.60902,0.08689
305.11924,0.05946
303.62945,0.04099
302.13966,0.02255
300.64987,0.00413
299.16008,0.00373
