1778.52000,0.02283
1777.03021,0.00412
1775.54042,0.01073
1774.05063,0.02002
1772.56085,0.02748
1771.07106,0.03496
1769.58127,0.02756
1768.09148,0.01619
1766.60169,0.02907
1765.11190,0.01775
1763.62212,0.02189
1762.13233,0.02953
1760.64254,0.02866
1759.15275,0.03528
1757.66296,0.03341
1756.17317,0.01292
1754.68339,0.01955
1753.19360,0.02381
1751.70381,0.02224
1750.21402,0.02789
1748.72423,0.02477
1747.23444,0.01715
1745.74465,0.02447
1744.25487,0.02196
1742.76508,0.02586
1741.27529,0.01702
1739.78550,0.01645
1738.29571,0.02336
1736.80592,0.02363
1735.31614,0.03379
1733.82635,0.02640
1732.33656,0.02010
1730.84677,0.01888
1729.35698,0.01556
1727.86719,0.01785
1726.37740,0.01804
1724.88762,0.01879
1723.39783,0.00492
1721.90804,0.00412
1720.41825,0.01277
1718.92846,0.01799
1717.43867,0.01312
1715.94889,0.01705
1714.45910,0.02953
1712.96931,0.02340
1711.47952,0.01277
1709.98973,0.01281
1708.49994,0.01075
1707.01016,0.01058
1705.52037,0.01043
1704.03058,0.01909
1702.54079,0.01101
1701.05100,0.02505
1699.56121,0.02047
1698.07142,0.02578
1696.58164,0.03483
1695.09185,0.03726
1693.60206,0.03997
1692.11227,0.02009
1690.62248,0.02871
1689.13269,0.05041
1687.64291,0.05402
1686.15312,0.05740
1684.66333,0.04323
1683.17354,0.06289
1681.68375,0.05170
1680.19396,0.04772
1678.70417,0.04776
1677.21439,0.07285
1675.72460,0.07800
1674.23481,0.06880
1672.74502,0.06921
1671.25523,0.07257
1669.76544,0.08794
1668.27566,0.09081
1666.78587,0.08600
1665.29608,0.07455
1663.80629,0.10466
1662.31650,0.11882
1660.82671,0.12556
1659.33693,0.10995
1657.84714,0.09597
1656.35735,0.10863
1654.86756,0.10083
1653.37777,0.10369
1651.88798,0.10552
1650.39819,0.10045
1648.90841,0.10126
1647.41862,0.11780
1645.92883,0.10628
1644.43904,0.09479
1642.94925,0.08638
1641.45946,0.09238
1639.96968,0.09201
1638.47989,0.09486
1636.99010,0.10200
1635.50031,0.10437
1634.01052,0.09771
1632.52073,0.08096
1631.03094,0.08554
1629.54116,0.09786
1628.05137,0.08811
1626.56158,0.07812
1625.07179,0.07827
1623.58200,0.08803
1622.09221,0.10367
1620.60243,0.11561
1619.11264,0.10654
1617.62285,0.11986
1616.13306,0.09540
1614.64327,0.08987
1613.15348,0.10886
1611.66370,0.09912
1610.17391,0.11071
1608.68412,0.08664
1607.19433,0.10147
1605.70454,0.10355
1604.21475,0.09580
1602.72496,0.08807
1601.23518,0.09155
1599.74539,0.10491
1598.25560,0.09593
1596.76581,0.09603
1595.27602,0.08710
1593.78623,0.10002
1592.29645,0.10366
1590.80666,0.08282
1589.31687,0.08225
1587.82708,0.09182
1586.33729,0.10647
1584.84750,0.10197
1583.35771,0.11028
1581.86793,0.08534
1580.37814,0.07533
1578.88835,0.08558
1577.39856,0.06551
1575.90877,0.07341
1574.41898,0.07362
1572.92920,0.06161
1571.43941,0.05708
1569.94962,0.05683
1568.45983,0.05661
1566.97004,0.03804
1565.48025,0.05251
1563.99047,0.02308
1562.50068,0.03760
1561.01089,0.06040
1559.52110,0.05368
1558.03131,0.05177
1556.54152,0.04030
1555.05173,0.03498
1553.56195,0.04060
1552.07216,0.05796
1550.58237,0.04153
1549.09258,0.01901
1547.60279,0.01488
1546.11300,0.00412
1544.62322,0.01979
1543.13343,0.02456
1541.64364,0.03283
1540.15385,0.02540
1538.66406,0.01801
1537.17427,0.02821
1535.68448,0.01661
1534.19470,0.02153
1532.70491,0.00412
1531.21512,0.02397
1529.72533,0.02973
1528.23554,0.03897
1526.74575,0.03706
1525.25597,0.04982
1523.76618,0.05887
1522.27639,0.04719
1520.78660,0.04405
1519.29681,0.05397
1517.80702,0.04263
1516.31724,0.06220
1514.82745,0.04345
1513.33766,0.05348
1511.84787,0.06353
1510.35808,0.08346
1508.86829,0.06775
1507.37850,0.07655
1505.88872,0.06753
1504.39893,0.05429
1502.90914,0.06077
1501.41935,0.07712
1499.92956,0.08365
1498.43977,0.09527
1496.94999,0.10770
1495.46020,0.12602
1493.97041,0.12094
1492.48062,0.12973
1490.99083,0.14786
1489.50104,0.17160
1488.01125,0.16915
1486.52147,0.16672
1485.03168,0.18948
1483.54189,0.22637
1482.05210,0.22894
1480.56231,0.25923
1479.07252,0.27223
1477.58274,0.27861
1476.09295,0.29859
1474.60316,0.32392
1473.11337,0.32957
1471.62358,0.36453
1470.13379,0.34042
1468.64401,0.35760
1467.15422,0.39849
1465.66443,0.41053
1464.17464,0.42259
1462.68485,0.45877
1461.19506,0.48778
1459.70527,0.53333
1458.21549,0.59115
1456.72570,0.62157
1455.23591,0.71938
1453.74612,0.76715
1452.25633,0.82135
1450.76654,0.84628
1449.27676,0.86858
1447.78697,0.84883
1446.29718,0.82512
1444.80739,0.79199
1443.31760,0.75888
1441.82781,0.70703
1440.33802,0.63816
1438.84824,0.63401
1437.35845,0.59794
1435.86866,0.58026
1434.37887,0.59509
1432.88908,0.60568
1431.39929,0.66582
1429.90951,0.72944
1428.41972,0.79096
1426.92993,0.88632
1425.44014,0.96892
1423.95035,0.98605
1422.46056,1.00321
1420.97078,1.04569
1419.48099,1.03415
1417.99120,1.05005
1416.50141,1.02605
1415.01162,0.97864
1413.52183,0.90810
1412.03204,0.88976
1410.54226,0.78892
1409.05247,0.74561
1407.56268,0.67330
1406.07289,0.61087
1404.58310,0.57030
1403.09331,0.52975
1401.60353,0.48257
1400.11374,0.42717
1398.62395,0.39841
1397.13416,0.36461
1395.64437,0.27973
1394.15458,0.23880
1392.66479,0.23038
1391.17501,0.18630
1389.68522,0.13507
1388.19543,0.10276
1386.70564,0.09816
1385.21585,0.09359
1383.72606,0.04884
1382.23628,0.02888
1380.74649,0.02891
1379.25670,0.01645
1377.76691,0.02745
1376.27712,0.00412
1374.78733,0.01163
1373.29755,0.02102
1371.80776,0.01101
1370.31797,0.02391
1368.82818,0.02633
1367.33839,0.02877
1365.84860,0.02179
1364.35881,0.02627
1362.86903,0.05129
1361.37924,0.06807
1359.88945,0.10378
1358.39966,0.13286
1356.90987,0.16064
1355.42008,0.19456
1353.93030,0.24235
1352.44051,0.29004
1350.95072,0.33775
1349.46093,0.39653
1347.97114,0.47371
1346.48135,0.54319
1344.99156,0.64598
1343.50178,0.70646
1342.01199,0.75339
1340.52220,0.74976
1339.03241,0.84999
1337.54262,0.86212
1336.05283,0.90955
1334.56305,0.95700
1333.07326,0.96868
1331.58347,0.98304
1330.09368,0.94711
1328.60389,0.91093
1327.11410,0.91392
1325.62432,0.91641
1324.13453,0.89122
1322.64474,0.84823
1321.15495,0.77332
1319.66516,0.74356
1318.17537,0.71382
1316.68558,0.66214
1315.19580,0.62274
1313.70601,0.56419
1312.21622,0.51818
1310.72643,0.50520
1309.23664,0.49731
1307.74685,0.47454
1306.25707,0.41159
1304.76728,0.39286
1303.27749,0.37416
1301.78770,0.32833
1300.29791,0.29024
1298.80812,0.23753
1297.31834,0.19231
1295.82855,0.16361
1294.33876,0.15278
1292.84897,0.11109
1291.35918,0.09872
1289.86939,0.10659
1288.37960,0.11450
1286.88982,0.09208
1285.40003,0.09205
1283.91024,0.08618
1282.42045,0.07449
1280.93066,0.05430
1279.44087,0.04745
1277.95109,0.04781
1276.46130,0.04154
1274.97151,0.03290
1273.48172,0.02428
1271.99193,0.01489
1270.50214,0.02283
1269.01235,0.02521
1267.52257,0.02229
1266.03278,0.02125
1264.54299,0.01252
1263.05320,0.00594
1261.56341,0.01004
1260.07362,0.01417
1258.58384,0.02657
1257.09405,0.00412
1255.60426,0.00799
1254.11447,0.01667
1252.62468,0.02538
1251.13489,0.01015
1249.64511,0.01944
1248.15532,0.02529
1246.66553,0.02678
1245.17574,0.02829
1243.68595,0.01479
1242.19616,0.02873
1240.70637,0.01181
1239.21659,0.02447
1237.72680,0.03024
1236.23701,0.03017
1234.74722,0.04344
1233.25743,0.03051
1231.76764,0.01761
1230.27786,0.02243
1228.78807,0.00412
1227.29828,0.01727
1225.80849,0.04428
1224.31870,0.03831
1222.82891,0.04035
1221.33912,0.04081
1219.84934,0.04823
1218.35955,0.05567
1216.86976,0.05408
1215.37997,0.06716
1213.89018,0.08107
1212.40039,0.08328
1210.91061,0.07461
1209.42082,0.09231
1207.93103,0.08010
1206.44124,0.06790
1204.95145,0.07264
1203.46166,0.07634
1201.97188,0.07687
1200.48209,0.06677
1198.99230,0.07960
1197.50251,0.07062
1196.01272,0.07684
1194.52293,0.06658
1193.03314,0.05635
1191.54336,0.04294
1190.05357,0.03462
1188.56378,0.02233
1187.07399,0.02631
1185.58420,0.03936
1184.09441,0.04791
1182.60463,0.04491
1181.11484,0.04193
1179.62505,0.02234
1178.13526,0.01635
1176.64547,0.02423
1175.15568,0.01430
1173.66589,0.00412
1172.17611,0.02683
1170.68632,0.03866
1169.19653,0.05050
1167.70674,0.05173
1166.21695,0.03620
1164.72716,0.02523
1163.23738,0.05076
1161.74759,0.06806
1160.25780,0.08937
1158.76801,0.10459
1157.27822,0.11984
1155.78843,0.10688
1154.29865,0.10700
1152.80886,0.11620
1151.31907,0.10412
1149.82928,0.15118
1148.33949,0.14900
1146.84970,0.14605
1145.35991,0.14313
1143.87013,0.12905
1142.38034,0.15040
1140.89055,0.15847
1139.40076,0.17721
1137.91097,0.22180
1136.42118,0.22329
1134.93140,0.24037
1133.44161,0.25749
1131.95182,0.26730
1130.46203,0.29897
1128.97224,0.28994
1127.48245,0.27640
1125.99266,0.28499
1124.50288,0.26405
1123.01309,0.26776
1121.52330,0.27149
1120.03351,0.30654
1118.54372,0.27691
1117.05393,0.26116
1115.56415,0.26939
1114.07436,0.25528
1112.58457,0.26369
1111.09478,0.27213
1109.60499,0.26023
1108.11520,0.25874
1106.62542,0.25833
1105.13563,0.26647
1103.64584,0.23870
1102.15605,0.26739
1100.66626,0.25910
1099.17647,0.25083
1097.68668,0.23221
1096.19690,0.24529
1094.70711,0.20995
1093.21732,0.21057
1091.72753,0.25834
1090.23774,0.24610
1088.74795,0.23389
1087.25817,0.22023
1085.76838,0.22684
1084.27859,0.22761
1082.78880,0.23613
1081.29901,0.23935
1079.80922,0.21544
1078.31943,0.22204
1076.82965,0.22866
1075.33986,0.25541
1073.85007,0.26727
1072.36028,0.26905
1070.87049,0.28922
1069.38070,0.31180
1067.89092,0.35758
1066.40113,0.40338
1064.91134,0.40448
1063.42155,0.51849
1061.93176,0.59045
1060.44197,0.67336
1058.95219,0.78585
1057.46240,0.83433
1055.97261,0.88283
1054.48282,0.97729
1052.99303,1.07097
1051.50324,0.99856
1050.01345,1.02094
1048.52367,1.03829
1047.03388,1.02386
1045.54409,1.00945
1044.05430,0.99519
1042.56451,0.95381
1041.07472,0.82247
1039.58494,0.74041
1038.09515,0.65145
1036.60536,0.62041
1035.11557,0.58941
1033.62578,0.53140
1032.13599,0.45825
1030.64620,0.37341
1029.15642,0.32480
1027.66663,0.29778
1026.17684,0.27079
1024.68705,0.22065
1023.19726,0.19398
1021.70747,0.17398
1020.21769,0.18941
1018.72790,0.16414
1017.23811,0.15806
1015.74832,0.15201
1014.25853,0.14066
1012.76874,0.14211
1011.27896,0.16835
1009.78917,0.14855
1008.29938,0.12133
1006.80959,0.10038
1005.31980,0.07947
1003.83001,0.05258
1002.34022,0.05874
1000.85044,0.03909
999.36065,0.03598
997.87086,0.03782
996.38107,0.03968
994.89128,0.05900
993.40149,0.07649
991.91171,0.09533
990.42192,0.12379
988.93213,0.12591
987.44234,0.13857
985.95255,0.15126
984.46276,0.12204
982.97297,0.13092
981.48319,0.11134
979.99340,0.10243
978.50361,0.09435
977.01382,0.08629
975.52403,0.05136
974.03424,0.04735
972.54446,0.02872
971.05467,0.01836
969.56488,0.00484
968.07509,0.01182
966.58530,0.01882
965.09551,0.02292
963.60573,0.03024
962.11594,0.03466
960.62615,0.03404
959.13636,0.02839
957.64657,0.02277
956.15678,0.00412
954.66699,0.03279
953.17721,0.03034
951.68742,0.06040
950.19763,0.06292
948.70784,0.06547
947.21805,0.07856
945.72826,0.09621
944.23848,0.10216
942.74869,0.10654
941.25890,0.12133
939.76911,0.12496
938.27932,0.12862
936.78953,0.15973
935.29974,0.19219
933.80996,0.21908
932.32017,0.22391
930.83038,0.22636
929.34059,0.22884
927.85080,0.26382
926.36101,0.28872
924.87123,0.31922
923.38144,0.36493
921.89165,0.39842
920.40186,0.43193
918.91207,0.55013
917.42228,0.70136
915.93250,0.84969
914.44271,1.05635
912.95292,1.15388
911.46313,1.25144
909.97334,1.47228
908.48355,1.63139
906.99376,1.81288
905.50398,1.92012
904.01419,1.95431
902.52440,1.98852
901.03461,2.00000
899.54482,1.99340
898.05503,1.81990
896.56525,1.66879
895.07546,1.51971
893.58567,1.37064
892.09588,1.11152
890.60609,0.87399
889.11630,0.67030
887.62651,0.51135
886.13673,0.45227
884.64694,0.39321
883.15715,0.27826
881.66736,0.18891
880.17757,0.14430
878.68778,0.13113
877.19800,0.11798
875.70821,0.09262
874.21842,0.05317
872.72863,0.04596
871.23884,0.06885
869.74905,0.07407
868.25927,0.07932
866.76948,0.05730
865.27969,0.06672
863.78990,0.05780
862.30011,0.09043
860.81032,0.09806
859.32053,0.10572
857.83075,0.10595
856.34096,0.14640
854.85117,0.13816
853.36138,0.17201
851.87159,0.17540
850.38180,0.17882
848.89202,0.19517
847.40223,0.23312
845.91244,0.24260
844.42265,0.24146
842.93286,0.24034
841.44307,0.27759
839.95329,0.27492
838.46350,0.28879
836.97371,0.31679
835.48392,0.31980
833.99413,0.32283
832.50434,0.30352
831.01455,0.30154
829.52477,0.28228
828.03498,0.22205
826.54519,0.21229
825.05540,0.20256
823.56561,0.19379
822.07582,0.18477
820.58604,0.18563
819.09625,0.17307
817.60646,0.16054
816.11667,0.15349
814.62688,0.16430
813.13709,0.15756
811.64730,0.15059
810.15752,0.15375
808.66773,0.15694
807.17794,0.14286
805.68815,0.14450
804.19836,0.15788
802.70857,0.17422
801.21879,0.19058
799.72900,0.17875
798.23921,0.15763
796.74942,0.15224
795.25963,0.15419
793.76984,0.15617
792.28006,0.18147
790.79027,0.16872
789.30048,0.19886
787.81069,0.25219
786.32090,0.25656
784.83111,0.26096
783.34132,0.32687
781.85154,0.34090
780.36175,0.36401
778.87196,0.39725
777.38217,0.43052
775.89238,0.44199
774.40259,0.47159
772.91281,0.48949
771.42302,0.46363
769.93323,0.43780
768.44344,0.39322
766.95365,0.33295
765.46386,0.29375
763.97407,0.25989
762.48429,0.24723
760.99450,0.23459
759.50471,0.17578
758.01492,0.14150
756.52513,0.11522
755.03534,0.11173
753.54556,0.10827
752.05577,0.10683
750.56598,0.08651
749.07619,0.08246
747.58640,0.07631
746.09661,0.07017
744.60683,0.05315
743.11704,0.05133
741.62725,0.02584
740.13746,0.02607
738.64767,0.02632
737.15788,0.03312
735.66809,0.02104
734.17831,0.01191
732.68852,0.00801
731.19873,0.00412
729.70894,0.01568
728.21915,0.02621
726.72936,0.01998
725.23958,0.01112
723.74979,0.01932
722.26000,0.02755
720.77021,0.00412
719.28042,0.01469
717.79063,0.00452
716.30084,0.00808
714.81106,0.01167
713.32127,0.00663
711.83148,0.02398
710.34169,0.02059
708.85190,0.01949
707.36211,0.01842
705.87233,0.03507
704.38254,0.05228
702.89275,0.03064
701.40296,0.04378
699.91317,0.05694
698.42338,0.09049
696.93360,0.08626
695.44381,0.10948
693.95402,0.11835
692.46423,0.12724
690.97444,0.13057
689.48465,0.12433
687.99486,0.15700
686.50508,0.16985
685.01529,0.18273
683.52550,0.20934
682.03571,0.21362
680.54592,0.25493
679.05613,0.25926
677.56635,0.26361
676.07656,0.27784
674.58677,0.24337
673.09698,0.20627
671.60719,0.21126
670.11740,0.21627
668.62761,0.20347
667.13783,0.16274
665.64804,0.15651
664.15825,0.15031
662.66846,0.11365
661.17867,0.10284
659.68888,0.07076
658.19910,0.05215
656.70931,0.03356
655.21952,0.01619
653.72973,0.06088
652.23994,0.04996
650.75015,0.05743
649.26037,0.06492
647.77058,0.05966
646.28079,0.02195
644.79100,0.03484
643.30121,0.03499
641.81142,0.03515
640.32163,0.03055
638.83185,0.01959
637.34206,0.00412
635.85227,0.00352
634.36248,0.00295
632.87269,0.01652
631.38290,0.02480
629.89312,0.01234
628.40333,0.00616
626.91354,0.00000
625.42375,0.02376
623.93396,0.01054
622.44417,0.01065
620.95438,0.01079
619.46460,0.03971
617.97481,0.02366
616.48502,0.05529
614.99523,0.06631
613.50544,0.07736
612.01565,0.12104
610.52587,0.18658
609.03608,0.17202
607.54629,0.19874
606.05650,0.22549
604.56671,0.26451
603.07692,0.29397
601.58714,0.31760
600.09735,0.34125
598.60756,0.39554
597.11777,0.38437
595.62798,0.39453
594.13819,0.38247
592.64840,0.37045
591.15862,0.32930
589.66883,0.28125
588.17904,0.27582
586.68925,0.25178
585.19946,0.22777
583.70967,0.19765
582.21989,0.11725
580.73010,0.10822
579.24031,0.09922
577.75052,0.08438
576.26073,0.05493
574.77094,0.05186
573.28115,0.04375
571.79137,0.03567
570.30158,0.04386
568.81179,0.05420
567.32200,0.07468
565.83221,0.09519
564.34242,0.13808
562.85264,0.14906
561.36285,0.15393
559.87306,0.16456
558.38327,0.17521
556.89348,0.19187
555.40369,0.19605
553.91391,0.20332
552.42412,0.21061
550.93433,0.21380
549.44454,0.22287
547.95475,0.21173
546.46496,0.22525
544.97517,0.23879
543.48539,0.25275
541.99560,0.26621
540.50581,0.29792
539.01602,0.32967
537.52623,0.36663
536.03644,0.40574
534.54666,0.42545
533.05687,0.44159
531.56708,0.45775
530.07729,0.50815
528.58750,0.58093
527.09771,0.61328
525.60792,0.64565
524.11814,0.66021
522.62835,0.69050
521.13856,0.76421
519.64877,0.81026
518.15898,0.85633
516.66919,0.89125
515.17941,0.85857
513.68962,0.86518
512.19983,0.87182
510.71004,0.84747
509.22025,0.79466
507.73046,0.68997
506.24068,0.63934
504.75089,0.58873
503.26110,0.46707
501.77131,0.36886
500.28152,0.34722
498.79173,0.32560
497.30194,0.25409
495.81216,0.20390
494.32237,0.19141
492.83258,0.17895
491.34279,0.08864
489.85300,0.05213
488.36321,0.04360
486.87343,0.05253
485.38364,0.06149
483.89385,0.08951
482.40406,0.10770
480.91427,0.11979
479.42448,0.13192
477.93469,0.12862
476.44491,0.16874
474.95512,0.18427
473.46533,0.19982
471.97554,0.19476
470.48575,0.17003
468.99596,0.20202
467.50618,0.20183
466.01639,0.20167
464.52660,0.15654
463.03681,0.13699
461.54702,0.13158
460.05723,0.12619
458.56745,0.07983
457.07766,0.05505
455.58787,0.04495
454.09808,0.03487
452.60829,0.02828
451.11850,0.00733
449.62871,0.00572
448.13893,0.00412
446.64914,0.00528
445.15935,0.03842
443.66956,0.05187
442.17977,0.04765
440.68998,0.04345
439.20020,0.03462
437.71041,0.05404
436.22062,0.03621
434.73083,0.01840
433.24104,0.03070
431.75125,0.05288
430.26146,0.05166
428.77168,0.05046
427.28189,0.02426
425.79210,0.05825
424.30231,0.04581
422.81252,0.03340
421.32273,0.07386
419.83295,0.03740
418.34316,0.04623
416.85337,0.05508
415.36358,0.03627
413.87379,0.05050
412.38400,0.04905
410.89422,0.04762
409.40443,0.03264
407.91464,0.03765
406.42485,0.03630
404.93506,0.04828
403.44527,0.06029
401.95548,0.05555
400.46570,0.02927
398.97591,0.03883
397.48612,0.04841
395.99633,0.02886
394.50654,0.03809
393.01675,0.03257
391.52697,0.02708
390.03718,0.02911
388.54739,0.05673
387.05760,0.05030
385.56781,0.04389
384.07802,0.03936
382.58824,0.00931
381.09845,0.00670
379.60866,0.00412
378.11887,0.02153
376.62908,0.00808
375.13929,0.01782
373.64950,0.02758
372.15972,0.04429
370.66993,0.03547
369.18014,0.02869
367.69035,0.02193
366.20056,0.02319
364.71077,0.03166
363.22099,0.03416
361.73120,0.03669
360.24141,0.04097
358.75162,0.03623
357.26183,0.03777
355.77204,0.03934
354.28225,0.05490
352.79247,0.07955
351.30268,0.10275
349.81289,0.12598
348.32310,0.11956
346.83331,0.12566
345.34352,0.10677
343.85374,0.08791
342.36395,0.05975
340.87416,0.04733
339.38437,0.04331
337.89458,0.03932
336.40479,0.01632
334.91501,0.05208
333.42522,0.04820
331.93543,0.04435
330.44564,0.03439
328.95585,0.06866
327.46606,0.06847
325.97627,0.06831
324.48649,0.05207
322.99670,0.03425
321.50691,0.02978
320.01712,0.02532
318.52733,0.04486
317.03754,0.08252
315.54776,0.08373
314.05797,0.08497
312.56818,0.14826
311.07839,0.14290
309.58860,0.12678
308.09881,0.11068
306.60902,0.06253
305.11924,0.05912
303.62945,0.03378
302.13966,0.00847
300.64987,0.00412
299.16008,0.00412
