1778.52000,0.01016
1777.03021,0.00998
1775.54042,0.00712
1774.05063,0.00314
1772.56085,0.01956
1771.07106,0.01903
1769.58127,0.02101
1768.09148,0.01124
1766.60169,0.00015
1765.11190,0.00492
1763.62212,0.01922
1762.13233,0.01544
1760.64254,0.00670
1759.15275,0.00410
1757.66296,0.00900
1756.17317,0.00418
1754.68339,0.00618
1753.19360,0.00391
1751.70381,0.01297
1750.21402,0.00463
1748.72423,0.00537
1747.23444,0.01111
1745.74465,0.00556
1744.25487,0.00887
1742.76508,0.01378
1741.27529,0.01599
1739.78550,0.00240
1738.29571,0.01121
1736.80592,0.01892
1735.31614,0.02077
1733.82635,0.01133
1732.33656,0.00123
1730.84677,0.01108
1729.35698,0.00442
1727.86719,0.01002
1726.37740,0.00454
1724.88762,0.01132
1723.39783,0.00680
1721.90804,0.00774
1720.41825,0.00100
1718.92846,0.01043
1717.43867,0.00494
1715.94889,0.01124
1714.45910,0.01780
1712.96931,0.01645
1711.47952,0.00427
1709.98973,0.00117
1708.49994,0.00578
1707.01016,0.00295
1705.52037,0.00015
1704.03058,0.01515
1702.54079,0.00687
1701.05100,0.01830
1699.56121,0.00984
1698.07142,0.01340
1696.58164,0.01676
1695.09185,0.01697
1693.60206,0.02015
1692.11227,0.02290
1690.62248,0.02183
1689.13269,0.03550
1687.64291,0.03334
1686.15312,0.02646
1684.66333,0.01915
1683.17354,0.02748
1681.68375,0.02089
1680.19396,0.03516
1678.70417,0.02749
1677.21439,0.03931
1675.72460,0.03962
1674.23481,0.04787
1672.74502,0.04369
1671.25523,0.05629
1669.76544,0.05420
1668.27566,0.06391
1666.78587,0.06232
1665.29608,0.06823
1663.80629,0.06149
1662.31650,0.07898
1660.82671,0.07772
1659.33693,0.08282
1657.84714,0.08161
1656.35735,0.07815
1654.86756,0.06658
1653.37777,0.07698
1651.88798,0.06907
1650.39819,0.07183
1648.90841,0.07461
1647.41862,0.07221
1645.92883,0.06915
1644.43904,0.06612
1642.94925,0.08891
1641.45946,0.08774
1639.96968,0.08297
1638.47989,0.09611
1636.99010,0.09252
1635.50031,0.08646
1634.01052,0.08360
1632.52073,0.07307
1631.03094,0.07818
1629.54116,0.08105
1628.05137,0.07784
1626.56158,0.07872
1625.07179,0.08098
1623.58200,0.06268
1622.09221,0.08830
1620.60243,0.08906
1619.11264,0.09821
1617.62285,0.09992
1616.13306,0.09192
1614.64327,0.09910
1613.15348,0.09998
1611.66370,0.10111
1610.17391,0.10316
1608.68412,0.10321
1607.19433,0.10735
1605.70454,0.10404
1604.21475,0.09500
1602.72496,0.08597
1601.23518,0.09949
1599.74539,0.09787
1598.25560,0.09129
1596.76581,0.09063
1595.27602,0.09881
1593.78623,0.08280
1592.29645,0.08583
1590.80666,0.07824
1589.31687,0.08721
1587.82708,0.07243
1586.33729,0.08528
1584.84750,0.09749
1583.35771,0.08980
1581.86793,0.08304
1580.37814,0.07879
1578.88835,0.06574
1577.39856,0.05906
1575.90877,0.06620
1574.41898,0.06477
1572.92920,0.05928
1571.43941,0.05903
1569.94962,0.05247
1568.45983,0.04593
1566.97004,0.03579
1565.48025,0.03292
1563.99047,0.02147
1562.50068,0.02884
1561.01089,0.02830
1559.52110,0.02847
1558.03131,0.01146
1556.54152,0.01508
1555.05173,0.01939
1553.56195,0.03165
1552.07216,0.02900
1550.58237,0.01551
1549.09258,0.01268
1547.60279,0.00015
1546.11300,0.00993
1544.62322,0.01091
1543.13343,0.01259
1541.64364,0.01973
1540.15385,0.01342
1538.66406,0.00714
1537.17427,0.01096
1535.68448,0.01186
1534.19470,0.00599
1532.70491,0.00015
1531.21512,0.00638
1529.72533,0.01829
1528.23554,0.02661
1526.74575,0.03065
1525.25597,0.04151
1523.76618,0.05804
1522.27639,0.04677
1520.78660,0.02194
1519.29681,0.02882
1517.80702,0.04138
1516.31724,0.04672
1514.82745,0.04371
1513.33766,0.04503
1511.84787,0.04637
1510.35808,0.05159
1508.86829,0.06203
1507.37850,0.06571
1505.88872,0.04678
1504.39893,0.04304
1502.90914,0.05540
1501.41935,0.06936
1499.92956,0.07429
1498.43977,0.07449
1496.94999,0.08740
1495.46020,0.09308
1493.97041,0.10897
1492.48062,0.12286
1490.99083,0.12703
1489.50104,0.13983
1488.01125,0.14281
1486.52147,0.14581
1485.03168,0.17294
1483.54189,0.19240
1482.05210,0.19649
1480.56231,0.22799
1479.07252,0.23372
1477.58274,0.24355
1476.09295,0.25611
1474.60316,0.26847
1473.11337,0.28335
1471.62358,0.28286
1470.13379,0.28398
1468.64401,0.31862
1467.15422,0.33473
1465.66443,0.34022
1464.17464,0.34574
1462.68485,0.37799
1461.19506,0.40415
1459.70527,0.46565
1458.21549,0.48959
1456.72570,0.55860
1455.23591,0.60342
1453.74612,0.67225
1452.25633,0.73613
1450.76654,0.75454
1449.27676,0.76076
1447.78697,0.75749
1446.29718,0.73162
1444.80739,0.70611
1443.31760,0.68062
1441.82781,0.62721
1440.33802,0.58015
1438.84824,0.53924
1437.35845,0.53908
1435.86866,0.50704
1434.37887,0.51984
1432.88908,0.55122
1431.39929,0.59959
1429.90951,0.65818
1428.41972,0.74304
1426.92993,0.86165
1425.44014,0.89270
1423.95035,0.90578
1422.46056,0.91889
1420.97078,0.96087
1419.48099,0.96123
1417.99120,0.98199
1416.50141,0.93963
1415.01162,0.91359
1413.52183,0.83620
1412.03204,0.78644
1410.54226,0.74599
1409.05247,0.68338
1407.56268,0.61581
1406.07289,0.55959
1404.58310,0.52682
1403.09331,0.49407
1401.60353,0.45150
1400.11374,0.41801
1398.62395,0.35760
1397.13416,0.33118
1395.64437,0.27105
1394.15458,0.22272
1392.66479,0.21130
1391.17501,0.17230
1389.68522,0.13875
1388.19543,0.09255
1386.70564,0.08315
1385.21585,0.07378
1383.72606,0.05708
1382.23628,0.03587
1380.74649,0.03370
1379.25670,0.01685
1377.76691,0.02333
1376.27712,0.01648
1374.78733,0.00015
1373.29755,0.00515
1371.80776,0.01968
1370.31797,0.03242
1368.82818,0.02481
1367.33839,0.01724
1365.84860,0.01987
1364.35881,0.04312
1362.86903,0.04263
1361.37924,0.06864
1359.88945,0.09378
1358.39966,0.11984
1356.90987,0.14027
1355.42008,0.18879
1353.93030,0.25137
1352.44051,0.28466
1350.95072,0.31797
1349.46093,0.38786
1347.97114,0.47000
1346.48135,0.53270
1344.99156,0.61534
1343.50178,0.68827
1342.01199,0.72886
1340.52220,0.78803
1339.03241,0.85900
1337.54262,0.90758
1336.05283,0.93628
1334.56305,0.96499
1333.07326,0.97291
1331.58347,1.00055
1330.09368,0.95601
1328.60389,0.93209
1327.11410,0.94939
1325.62432,0.94249
1324.13453,0.90462
1322.64474,0.82987
1321.15495,0.77665
1319.66516,0.74315
1318.17537,0.70967
1316.68558,0.66422
1315.19580,0.64482
1313.70601,0.57860
1312.21622,0.55495
1310.72643,0.52521
1309.23664,0.49889
1307.74685,0.45630
1306.25707,0.41374
1304.76728,0.39598
1303.27749,0.37825
1301.78770,0.34300
1300.29791,0.29737
1298.80812,0.26081
1297.31834,0.21454
1295.82855,0.18007
1294.33876,0.16147
1292.84897,0.14379
1291.35918,0.11799
1289.86939,0.11497
1288.37960,0.11196
1286.88982,0.11249
1285.40003,0.09200
1283.91024,0.09800
1282.42045,0.08616
1280.93066,0.05781
1279.44087,0.04805
1277.95109,0.05212
1276.46130,0.03856
1274.97151,0.03657
1273.48172,0.03460
1271.99193,0.03130
1270.50214,0.03210
1269.01235,0.02409
1267.52257,0.01272
1266.03278,0.01902
1264.54299,0.00339
1263.05320,0.01902
1261.56341,0.01759
1260.07362,0.01618
1258.58384,0.02238
1257.09405,0.00891
1255.60426,0.00225
1254.11447,0.00015
1252.62468,0.00084
1251.13489,0.00245
1249.64511,0.00523
1248.15532,0.01097
1246.66553,0.01368
1245.17574,0.01641
1243.68595,0.00638
1242.19616,0.00000
1240.70637,0.01152
1239.21659,0.01017
1237.72680,0.01359
1236.23701,0.00277
1234.74722,0.00715
1233.25743,0.00521
1231.76764,0.00330
1230.27786,0.00141
1228.78807,0.00385
1227.29828,0.01808
1225.80849,0.00857
1224.31870,0.01696
1222.82891,0.01701
1221.33912,0.01821
1219.84934,0.01683
1218.35955,0.01547
1216.86976,0.03440
1215.37997,0.03909
1213.89018,0.06803
1212.40039,0.05625
1210.91061,0.06464
1209.42082,0.07078
1207.93103,0.06937
1206.44124,0.06799
1204.95145,0.05384
1203.46166,0.05443
1201.97188,0.06613
1200.48209,0.04323
1198.99230,0.05996
1197.50251,0.05023
1196.01272,0.04959
1194.52293,0.04477
1193.03314,0.03999
1191.54336,0.00773
1190.05357,0.02030
1188.56378,0.01276
1187.07399,0.02923
1185.58420,0.03328
1184.09441,0.01269
1182.60463,0.01667
1181.11484,0.02068
1179.62505,0.00876
1178.13526,0.01089
1176.64547,0.00015
1175.15568,0.00318
1173.66589,0.01778
1172.17611,0.01769
1170.68632,0.02103
1169.19653,0.02438
1167.70674,0.02007
1166.21695,0.02528
1164.72716,0.00359
1163.23738,0.02741
1161.74759,0.03610
1160.25780,0.07808
1158.76801,0.07357
1157.27822,0.06909
1155.78843,0.08375
1154.29865,0.06925
1152.80886,0.08147
1151.31907,0.09236
1149.82928,0.11844
1148.33949,0.11173
1146.84970,0.11704
1145.35991,0.12237
1143.87013,0.11030
1142.38034,0.13265
1140.89055,0.14846
1139.40076,0.16295
1137.91097,0.16727
1136.42118,0.19651
1134.93140,0.20823
1133.44161,0.21998
1131.95182,0.22486
1130.46203,0.23994
1128.97224,0.24848
1127.48245,0.23645
1125.99266,0.22127
1124.50288,0.26406
1123.01309,0.27168
1121.52330,0.27933
1120.03351,0.26267
1118.54372,0.24309
1117.05393,0.24277
1115.56415,0.26308
1114.07436,0.25534
1112.58457,0.24118
1111.09478,0.22704
1109.60499,0.20919
1108.11520,0.23052
1106.62542,0.24509
1105.13563,0.24361
1103.64584,0.23106
1102.15605,0.23303
1100.66626,0.22110
1099.17647,0.20919
1097.68668,0.23341
1096.19690,0.21352
1094.70711,0.21832
1093.21732,0.19418
1091.72753,0.22845
1090.23774,0.22914
1088.74795,0.22985
1087.25817,0.21712
1085.76838,0.22139
1084.27859,0.19966
1082.78880,0.21597
1081.29901,0.22099
1079.80922,0.21065
1078.31943,0.21006
1076.82965,0.20950
1075.33986,0.23612
1073.85007,0.25597
1072.36028,0.27336
1070.87049,0.28896
1069.38070,0.32021
1067.89092,0.35408
1066.40113,0.38798
1064.91134,0.42518
1063.42155,0.48617
1061.93176,0.59064
1060.44197,0.67906
1058.95219,0.77588
1057.46240,0.83539
1055.97261,0.89491
1054.48282,1.01784
1052.99303,1.10751
1051.50324,1.10782
1050.01345,1.09683
1048.52367,1.07998
1047.03388,1.06169
1045.54409,1.04342
1044.05430,1.01103
1042.56451,0.95444
1041.07472,0.86212
1039.58494,0.73905
1038.09515,0.66172
1036.60536,0.63590
1035.11557,0.61010
1033.62578,0.54077
1032.13599,0.45063
1030.64620,0.38610
1029.15642,0.31547
1027.66663,0.30723
1026.17684,0.29901
1024.68705,0.23366
1023.19726,0.22176
1021.70747,0.20263
1020.21769,0.17312
1018.72790,0.15721
1017.23811,0.15219
1015.74832,0.14720
1014.25853,0.13023
1012.76874,0.12121
1011.27896,0.10112
1009.78917,0.09487
1008.29938,0.06736
1006.80959,0.06715
1005.31980,0.06697
1003.83001,0.03546
1002.34022,0.04110
1000.85044,0.03906
999.36065,0.03524
997.87086,0.04038
996.38107,0.04555
994.89128,0.08299
993.40149,0.09851
991.91171,0.10952
990.42192,0.14341
988.93213,0.13818
987.44234,0.14055
985.95255,0.14294
984.46276,0.14865
982.97297,0.12970
981.48319,0.10988
979.99340,0.09823
978.50361,0.08467
977.01382,0.07115
975.52403,0.04735
974.03424,0.03104
972.54446,0.01724
971.05467,0.00710
969.56488,0.01327
968.07509,0.00770
966.58530,0.00215
965.09551,0.00749
963.60573,0.01851
962.11594,0.02774
960.62615,0.00464
959.13636,0.00238
957.64657,0.00015
956.15678,0.00128
954.66699,0.01353
953.17721,0.02264
951.68742,0.04942
950.19763,0.05450
948.70784,0.05960
947.21805,0.05432
945.72826,0.06241
944.23848,0.07891
942.74869,0.09927
941.25890,0.10789
939.76911,0.11948
938.27932,0.13109
936.78953,0.14567
935.29974,0.18426
933.80996,0.19255
932.32017,0.21218
930.83038,0.21928
929.34059,0.22640
927.85080,0.25017
926.36101,0.24455
924.87123,0.27517
923.38144,0.32097
921.89165,0.36397
920.40186,0.40700
918.91207,0.50221
917.42228,0.63729
915.93250,0.76469
914.44271,0.97088
912.95292,1.09573
911.46313,1.22060
909.97334,1.41781
908.48355,1.60237
906.99376,1.77609
905.50398,1.91000
904.01419,1.93620
902.52440,1.96243
901.03461,2.00000
899.54482,1.98237
898.05503,1.84708
896.56525,1.59050
895.07546,1.45944
893.58567,1.32841
892.09588,1.07643
890.60609,0.85548
889.11630,0.63388
887.62651,0.46616
886.13673,0.40937
884.64694,0.35261
883.15715,0.25626
881.66736,0.18823
880.17757,0.11660
878.68778,0.10599
877.19800,0.09540
875.70821,0.06843
874.21842,0.04533
872.72863,0.04308
871.23884,0.02817
869.74905,0.02835
868.25927,0.02854
866.76948,0.02277
865.27969,0.03444
863.78990,0.04818
862.30011,0.05221
860.81032,0.05830
859.32053,0.06441
857.83075,0.09364
856.34096,0.11858
854.85117,0.12658
853.36138,0.14298
851.87159,0.14095
850.38180,0.13895
848.89202,0.18372
847.40223,0.19772
845.91244,0.23257
844.42265,0.22976
842.93286,0.22698
841.44307,0.23837
839.95329,0.24955
838.46350,0.26642
836.97371,0.31454
835.48392,0.31482
833.99413,0.31513
832.50434,0.30652
831.01455,0.28661
829.52477,0.25768
828.03498,0.24688
826.54519,0.23860
825.05540,0.23033
823.56561,0.18951
822.07582,0.18084
820.58604,0.17740
819.09625,0.17716
817.60646,0.17694
816.11667,0.15593
814.62688,0.16300
813.13709,0.16331
811.64730,0.15345
810.15752,0.15573
808.66773,0.15804
807.17794,0.16229
805.68815,0.15864
804.19836,0.16657
802.70857,0.17949
801.21879,0.19244
799.72900,0.15879
798.23921,0.15640
796.74942,0.15064
795.25963,0.15644
793.76984,0.16227
792.28006,0.16066
790.79027,0.18623
789.30048,0.19824
787.81069,0.25871
786.32090,0.26059
784.83111,0.26249
783.34132,0.31761
781.85154,0.35848
780.36175,0.40142
778.87196,0.41859
777.38217,0.43577
775.89238,0.46928
774.40259,0.49693
772.91281,0.46983
771.42302,0.45373
769.93323,0.43766
768.44344,0.36446
766.95365,0.30057
765.46386,0.27563
763.97407,0.21473
762.48429,0.20285
760.99450,0.19100
759.50471,0.16073
758.01492,0.13862
756.52513,0.12266
755.03534,0.12346
753.54556,0.12429
752.05577,0.09437
750.56598,0.08710
749.07619,0.06854
747.58640,0.06879
746.09661,0.06906
744.60683,0.05125
743.11704,0.03075
741.62725,0.03019
740.13746,0.02524
738.64767,0.02032
737.15788,0.03251
735.66809,0.02526
734.17831,0.00015
732.68852,0.00611
731.19873,0.01210
729.70894,0.01404
728.21915,0.01600
726.72936,0.01029
725.23958,0.01049
723.74979,0.01468
722.26000,0.01889
720.77021,0.00015
719.28042,0.02982
717.79063,0.03507
716.30084,0.02960
714.81106,0.02415
713.32127,0.02721
711.83148,0.04773
710.34169,0.03477
708.85190,0.03213
707.36211,0.02952
705.87233,0.04470
704.38254,0.04723
702.89275,0.05318
701.40296,0.05757
699.91317,0.06199
698.42338,0.07276
696.93360,0.07971
695.44381,0.12222
693.95402,0.11508
692.46423,0.10796
690.97444,0.12746
689.48465,0.13815
687.99486,0.19165
686.50508,0.19051
685.01529,0.18940
683.52550,0.22395
682.03571,0.23183
680.54592,0.25376
679.05613,0.25557
677.56635,0.25741
676.07656,0.28552
674.58677,0.24373
673.09698,0.20762
671.60719,0.20016
670.11740,0.19273
668.62761,0.20082
667.13783,0.15236
665.64804,0.14025
664.15825,0.12816
662.66846,0.10987
661.17867,0.06988
659.68888,0.05209
658.19910,0.04644
656.70931,0.04081
655.21952,0.04256
653.72973,0.04660
652.23994,0.04478
650.75015,0.03981
649.26037,0.03487
647.77058,0.04399
646.28079,0.02574
644.79100,0.02743
643.30121,0.02780
641.81142,0.02818
640.32163,0.01546
638.83185,0.01001
637.34206,0.01251
635.85227,0.00632
634.36248,0.00015
632.87269,0.00249
631.38290,0.00146
629.89312,0.01109
628.40333,0.00694
626.91354,0.00282
625.42375,0.00619
623.93396,0.01908
622.44417,0.02216
620.95438,0.02526
619.46460,0.02262
617.97481,0.03199
616.48502,0.06086
614.99523,0.07696
613.50544,0.09308
612.01565,0.14374
610.52587,0.15618
609.03608,0.18426
607.54629,0.20444
606.05650,0.22465
604.56671,0.26570
603.07692,0.30588
601.58714,0.32435
600.09735,0.34284
598.60756,0.38014
597.11777,0.39801
595.62798,0.39915
594.13819,0.38288
592.64840,0.36665
591.15862,0.34862
589.66883,0.33107
588.17904,0.28051
586.68925,0.25045
585.19946,0.22041
583.70967,0.18101
582.21989,0.12398
580.73010,0.11133
579.24031,0.09871
577.75052,0.07705
576.26073,0.04637
574.77094,0.05713
573.28115,0.04212
571.79137,0.02712
570.30158,0.04792
568.81179,0.07054
567.32200,0.08675
565.83221,0.10297
564.34242,0.13382
562.85264,0.15043
561.36285,0.18835
559.87306,0.19482
558.38327,0.20133
556.89348,0.18884
555.40369,0.19471
553.91391,0.19710
552.42412,0.19952
550.93433,0.21587
549.44454,0.21528
547.95475,0.21222
546.46496,0.21665
544.97517,0.22111
543.48539,0.25027
541.99560,0.29574
540.50581,0.32347
539.01602,0.35122
537.52623,0.39020
536.03644,0.40137
534.54666,0.42909
533.05687,0.45581
531.56708,0.48255
530.07729,0.55764
528.58750,0.59043
527.09771,0.61148
525.60792,0.63255
524.11814,0.69529
522.62835,0.73157
521.13856,0.82084
519.64877,0.85050
518.15898,0.88018
516.66919,0.90592
515.17941,0.92037
513.68962,0.92421
512.19983,0.92808
510.71004,0.85841
509.22025,0.80167
507.73046,0.73907
506.24068,0.68927
504.75089,0.63951
503.26110,0.51836
501.77131,0.42032
500.28152,0.36531
498.79173,0.31032
497.30194,0.23522
495.81216,0.22554
494.32237,0.19439
492.83258,0.16327
491.34279,0.11859
489.85300,0.08638
488.36321,0.07253
486.87343,0.08416
485.38364,0.09582
483.89385,0.12119
482.40406,0.12170
480.91427,0.14316
479.42448,0.16465
477.93469,0.17156
476.44491,0.20204
474.95512,0.19938
473.46533,0.19675
471.97554,0.22821
470.48575,0.20016
468.99596,0.24185
467.50618,0.22494
466.01639,0.20806
464.52660,0.16835
463.03681,0.12571
461.54702,0.11819
460.05723,0.11068
458.56745,0.07491
457.07766,0.04301
455.58787,0.03762
454.09808,0.03225
452.60829,0.02396
451.11850,0.00845
449.62871,0.00429
448.13893,0.00015
446.64914,0.02107
445.15935,0.04225
443.66956,0.03040
442.17977,0.03861
440.68998,0.04684
439.20020,0.05725
437.71041,0.03011
436.22062,0.03299
434.73083,0.03589
433.24104,0.03870
431.75125,0.04764
430.26146,0.04801
428.77168,0.04840
427.28189,0.04543
425.79210,0.05243
424.30231,0.04045
422.81252,0.02850
421.32273,0.02630
419.83295,0.05060
418.34316,0.04664
416.85337,0.04270
415.36358,0.05486
413.87379,0.04350
412.38400,0.04178
410.89422,0.04009
409.40443,0.04805
407.91464,0.04063
406.42485,0.02035
404.93506,0.02566
403.44527,0.03099
401.95548,0.05853
400.46570,0.02023
398.97591,0.02451
397.48612,0.02881
395.99633,0.02884
394.50654,0.02481
393.01675,0.02432
391.52697,0.02385
390.03718,0.00723
388.54739,0.02551
387.05760,0.03420
385.56781,0.04291
384.07802,0.01238
382.58824,0.01333
381.09845,0.00673
379.60866,0.00015
378.11887,0.01128
376.62908,0.03035
375.13929,0.02613
373.64950,0.02195
372.15972,0.01710
370.66993,0.01862
369.18014,0.01469
367.69035,0.01079
366.20056,0.01110
364.71077,0.04176
363.22099,0.03420
361.73120,0.02666
360.24141,0.01711
358.75162,0.00600
357.26183,0.00306
355.77204,0.00015
354.28225,0.03821
352.79247,0.05593
351.30268,0.06360
349.81289,0.07129
348.32310,0.08433
346.83331,0.07996
345.34352,0.07358
343.85374,0.06723
342.36395,0.03284
340.87416,0.02472
339.38437,0.01844
337.89458,0.01218
336.40479,0.00052
334.91501,0.01970
333.42522,0.01504
331.93543,0.01040
330.44564,0.00340
328.95585,0.01567
327.46606,0.02253
325.97627,0.02941
324.48649,0.01256
322.99670,0.01432
321.50691,0.02403
320.01712,0.03377
318.52733,0.03990
317.03754,0.03430
315.54776,0.04682
314.05797,0.05937
312.56818,0.09887
311.07839,0.06824
309.58860,0.07249
308.09881,0.07676
306.60902,0.05028
305.11924,0.03242
303.62945,0.01685
302.13966,0.00130
300.64987,0.01463
299.16008,0.00015
