1778.52000,0.02249
1777.03021,0.02153
1775.54042,0.01904
1774.05063,0.01761
1772.56085,0.01958
1771.07106,0.01586
1769.58127,0.01944
1768.09148,0.02538
1766.60169,0.02043
1765.11190,0.01032
1763.62212,0.00906
1762.13233,0.00393
1760.64254,0.02064
1759.15275,0.01790
1757.66296,0.01206
1756.17317,0.01768
1754.68339,0.01578
1753.19360,0.00846
1751.70381,0.01623
1750.21402,0.01752
1748.72423,0.01105
1747.23444,0.02045
1745.74465,0.01065
1744.25487,0.02685
1742.76508,0.01139
1741.27529,0.01595
1739.78550,0.02546
1738.29571,0.01553
1736.80592,0.02613
1735.31614,0.02066
1733.82635,0.01781
1732.33656,0.01784
1730.84677,0.00907
1729.35698,0.02083
1727.86719,0.02301
1726.37740,0.02444
1724.88762,0.02407
1723.39783,0.02113
1721.90804,0.00393
1720.41825,0.01945
1718.92846,0.00720
1717.43867,0.02613
1715.94889,0.02172
1714.45910,0.00825
1712.96931,0.02388
1711.47952,0.01669
1709.98973,0.01497
1708.49994,0.02315
1707.01016,0.01823
1705.52037,0.01334
1704.03058,0.00835
1702.54079,0.01143
1701.05100,0.01194
1699.56121,0.01299
1698.07142,0.00393
1696.58164,0.00751
1695.09185,0.01267
1693.60206,0.00642
1692.11227,0.00825
1690.62248,0.02075
1689.13269,0.02029
1687.64291,0.01674
1686.15312,0.02854
1684.66333,0.03282
1683.17354,0.03376
1681.68375,0.01940
1680.19396,0.03727
1678.70417,0.03282
1677.21439,0.03749
1675.72460,0.04556
1674.23481,0.03600
1672.74502,0.05035
1671.25523,0.05953
1669.76544,0.06666
1668.27566,0.06888
1666.78587,0.08306
1665.29608,0.08715
1663.80629,0.06763
1662.31650,0.06734
1660.82671,0.08137
1659.33693,0.07828
1657.84714,0.08742
1656.35735,0.08204
1654.86756,0.08630
1653.37777,0.08357
1651.88798,0.07826
1650.39819,0.09428
1648.90841,0.08227
1647.41862,0.08664
1645.92883,0.08533
1644.43904,0.08404
1642.94925,0.08018
1641.45946,0.09219
1639.96968,0.08266
1638.47989,0.09472
1636.99010,0.07537
1635.50031,0.07683
1634.01052,0.08376
1632.52073,0.08812
1631.03094,0.08653
1629.54116,0.09353
1628.05137,0.10550
1626.56158,0.11099
1625.07179,0.08717
1623.58200,0.08077
1622.09221,0.10166
1620.60243,0.08648
1619.11264,0.10404
1617.62285,0.10630
1616.13306,0.08211
1614.64327,0.07923
1613.15348,0.08702
1611.66370,0.10574
1610.17391,0.07722
1608.68412,0.09106
1607.19433,0.08908
1605.70454,0.08349
1604.21475,0.08637
1602.72496,0.08926
1601.23518,0.08842
1599.74539,0.10526
1598.25560,0.09564
1596.76581,0.09746
1595.27602,0.08295
1593.78623,0.08119
1592.29645,0.08335
1590.80666,0.06710
1589.31687,0.08515
1587.82708,0.09076
1586.33729,0.07432
1584.84750,0.07997
1583.35771,0.06098
1581.86793,0.06617
1580.37814,0.07398
1578.88835,0.07973
1577.39856,0.07278
1575.90877,0.05054
1574.41898,0.03871
1572.92920,0.04430
1571.43941,0.03641
1569.94962,0.03660
1568.45983,0.03681
1566.97004,0.03445
1565.48025,0.02744
1563.99047,0.03213
1562.50068,0.02517
1561.01089,0.02083
1559.52110,0.02975
1558.03131,0.00780
1556.54152,0.00873
1555.05173,0.01850
1553.56195,0.03402
1552.07216,0.02048
1550.58237,0.02383
1549.09258,0.01891
1547.60279,0.00803
1546.11300,0.00393
1544.62322,0.01711
1543.13343,0.00565
1541.64364,0.01472
1540.15385,0.01135
1538.66406,0.00801
1537.17427,0.01144
1535.68448,0.00892
1534.19470,0.01007
1532.70491,0.01954
1531.21512,0.02671
1529.72533,0.03727
1528.23554,0.01748
1526.74575,0.02939
1525.25597,0.00393
1523.76618,0.03240
1522.27639,0.03493
1520.78660,0.02943
1519.29681,0.04681
1517.80702,0.02656
1516.31724,0.04087
1514.82745,0.03417
1513.33766,0.03866
1511.84787,0.04317
1510.35808,0.05810
1508.86829,0.05176
1507.37850,0.03947
1505.88872,0.04564
1504.39893,0.05624
1502.90914,0.04065
1501.41935,0.05209
1499.92956,0.06225
1498.43977,0.06932
1496.94999,0.08239
1495.46020,0.08847
1493.97041,0.08886
1492.48062,0.10797
1490.99083,0.10919
1489.50104,0.13640
1488.01125,0.13611
1486.52147,0.13585
1485.03168,0.15820
1483.54189,0.16915
1482.05210,0.18817
1480.56231,0.20488
1479.07252,0.23201
1477.58274,0.24669
1476.09295,0.24893
1474.60316,0.25353
1473.11337,0.26569
1471.62358,0.27813
1470.13379,0.27242
1468.64401,0.30231
1467.15422,0.32521
1465.66443,0.32775
1464.17464,0.33032
1462.68485,0.37874
1461.19506,0.38408
1459.70527,0.43048
1458.21549,0.51040
1456.72570,0.56697
1455.23591,0.61915
1453.74612,0.68174
1452.25633,0.76176
1450.76654,0.77376
1449.27676,0.77332
1447.78697,0.78018
1446.29718,0.73798
1444.80739,0.72386
1443.31760,0.70975
1441.82781,0.65854
1440.33802,0.61618
1438.84824,0.56605
1437.35845,0.52063
1435.86866,0.48873
1434.37887,0.50437
1432.88908,0.59016
1431.39929,0.63961
1429.90951,0.70727
1428.41972,0.74924
1426.92993,0.81331
1425.44014,0.86000
1423.95035,0.88296
1422.46056,0.90594
1420.97078,0.96725
1419.48099,1.02676
1417.99120,1.01333
1416.50141,0.97993
1415.01162,0.93227
1413.52183,0.87944
1412.03204,0.82742
1410.54226,0.78788
1409.05247,0.74369
1407.56268,0.68603
1406.07289,0.62345
1404.58310,0.57544
1403.09331,0.52746
1401.60353,0.47560
1400.11374,0.41416
1398.62395,0.36963
1397.13416,0.31213
1395.64437,0.27076
1394.15458,0.23123
1392.66479,0.18601
1391.17501,0.17042
1389.68522,0.13720
1388.19543,0.11438
1386.70564,0.10445
1385.21585,0.09454
1383.72606,0.06920
1382.23628,0.04078
1380.74649,0.02588
1379.25670,0.01723
1377.76691,0.03120
1376.27712,0.01690
1374.78733,0.00547
1373.29755,0.00393
1371.80776,0.02517
1370.31797,0.00617
1368.82818,0.01823
1367.33839,0.03032
1365.84860,0.03217
1364.35881,0.03457
1362.86903,0.04271
1361.37924,0.07709
1359.88945,0.07385
1358.39966,0.10101
1356.90987,0.12119
1355.42008,0.16658
1353.93030,0.22784
1352.44051,0.26549
1350.95072,0.30316
1349.46093,0.37254
1347.97114,0.47674
1346.48135,0.54928
1344.99156,0.61588
1343.50178,0.66977
1342.01199,0.74966
1340.52220,0.82230
1339.03241,0.86692
1337.54262,0.92169
1336.05283,0.92481
1334.56305,0.92795
1333.07326,0.95786
1331.58347,0.98053
1330.09368,0.98842
1328.60389,0.95453
1327.11410,0.91806
1325.62432,0.90966
1324.13453,0.86441
1322.64474,0.81608
1321.15495,0.78282
1319.66516,0.76712
1318.17537,0.75144
1316.68558,0.68684
1315.19580,0.63811
1313.70601,0.56550
1312.21622,0.51344
1310.72643,0.50450
1309.23664,0.46158
1307.74685,0.44984
1306.25707,0.40852
1304.76728,0.38695
1303.27749,0.36542
1301.78770,0.32651
1300.29791,0.27801
1298.80812,0.24980
1297.31834,0.21174
1295.82855,0.17111
1294.33876,0.15102
1292.84897,0.12524
1291.35918,0.12285
1289.86939,0.11712
1288.37960,0.11140
1286.88982,0.12779
1285.40003,0.09590
1283.91024,0.08039
1282.42045,0.08620
1280.93066,0.05672
1279.44087,0.07582
1277.95109,0.05782
1276.46130,0.05957
1274.97151,0.05512
1273.48172,0.05068
1271.99193,0.03771
1270.50214,0.04242
1269.01235,0.04481
1267.52257,0.04126
1266.03278,0.03071
1264.54299,0.03526
1263.05320,0.04009
1261.56341,0.03287
1260.07362,0.02567
1258.58384,0.02797
1257.09405,0.01212
1255.60426,0.01032
1254.11447,0.01088
1252.62468,0.00393
1251.13489,0.01793
1249.64511,0.02208
1248.15532,0.02626
1246.66553,0.03111
1245.17574,0.03598
1243.68595,0.02569
1242.19616,0.01153
1240.70637,0.02180
1239.21659,0.01755
1237.72680,0.00684
1236.23701,0.01277
1234.74722,0.01742
1233.25743,0.02626
1231.76764,0.03512
1230.27786,0.00634
1228.78807,0.01993
1227.29828,0.01016
1225.80849,0.00431
1224.31870,0.01122
1222.82891,0.00880
1221.33912,0.02458
1219.84934,0.02623
1218.35955,0.02790
1216.86976,0.05648
1215.37997,0.04431
1213.89018,0.06255
1212.40039,0.05667
1210.91061,0.05522
1209.42082,0.06185
1207.93103,0.04915
1206.44124,0.03648
1204.95145,0.05850
1203.46166,0.06263
1201.97188,0.06704
1200.48209,0.06628
1198.99230,0.05567
1197.50251,0.04873
1196.01272,0.05558
1194.52293,0.04777
1193.03314,0.04000
1191.54336,0.03783
1190.05357,0.01724
1188.56378,0.03096
1187.07399,0.02886
1185.58420,0.03588
1184.09441,0.02785
1182.60463,0.02362
1181.11484,0.01941
1179.62505,0.00393
1178.13526,0.01787
1176.64547,0.01833
1175.15568,0.00843
1173.66589,0.01491
1172.17611,0.01232
1170.68632,0.01612
1169.19653,0.01995
1167.70674,0.00393
1166.21695,0.02473
1164.72716,0.03647
1163.23738,0.03161
1161.74759,0.05872
1160.25780,0.07910
1158.76801,0.07782
1157.27822,0.07656
1155.78843,0.06429
1154.29865,0.11541
1152.80886,0.10086
1151.31907,0.10944
1149.82928,0.11830
1148.33949,0.13316
1146.84970,0.13441
1145.35991,0.13569
1143.87013,0.14750
1142.38034,0.14688
1140.89055,0.14940
1139.40076,0.14571
1137.91097,0.16541
1136.42118,0.17424
1134.93140,0.18438
1133.44161,0.19455
1131.95182,0.22266
1130.46203,0.23054
1128.97224,0.21689
1127.48245,0.21989
1125.99266,0.23278
1124.50288,0.25140
1123.01309,0.25564
1121.52330,0.25990
1120.03351,0.25003
1118.54372,0.23318
1117.05393,0.25400
1115.56415,0.23824
1114.07436,0.23782
1112.58457,0.23456
1111.09478,0.23133
1109.60499,0.24189
1108.11520,0.24936
1106.62542,0.26204
1105.13563,0.24437
1103.64584,0.22594
1102.15605,0.23688
1100.66626,0.22356
1099.17647,0.21027
1097.68668,0.23271
1096.19690,0.23076
1094.70711,0.22962
1093.21732,0.20279
1091.72753,0.19312
1090.23774,0.18660
1088.74795,0.18010
1087.25817,0.19076
1085.76838,0.19028
1084.27859,0.19191
1082.78880,0.19381
1081.29901,0.22015
1079.80922,0.22211
1078.31943,0.23045
1076.82965,0.23882
1075.33986,0.25824
1073.85007,0.25458
1072.36028,0.23588
1070.87049,0.25305
1069.38070,0.26634
1067.89092,0.28498
1066.40113,0.30364
1064.91134,0.37362
1063.42155,0.45894
1061.93176,0.56999
1060.44197,0.66315
1058.95219,0.76698
1057.46240,0.80916
1055.97261,0.85137
1054.48282,0.92749
1052.99303,0.97377
1051.50324,1.03149
1050.01345,1.08847
1048.52367,1.07250
1047.03388,1.04123
1045.54409,1.00998
1044.05430,0.93046
1042.56451,0.85045
1041.07472,0.79357
1039.58494,0.72425
1038.09515,0.63755
1036.60536,0.61346
1035.11557,0.58940
1033.62578,0.50901
1032.13599,0.44059
1030.64620,0.37817
1029.15642,0.30590
1027.66663,0.27664
1026.17684,0.24740
1024.68705,0.23960
1023.19726,0.21989
1021.70747,0.16385
1020.21769,0.14470
1018.72790,0.15830
1017.23811,0.15244
1015.74832,0.14662
1014.25853,0.11978
1012.76874,0.11893
1011.27896,0.10305
1009.78917,0.07472
1008.29938,0.07395
1006.80959,0.06671
1005.31980,0.05949
1003.83001,0.04009
1002.34022,0.01215
1000.85044,0.03071
999.36065,0.05605
997.87086,0.06324
996.38107,0.07045
994.89128,0.08807
993.40149,0.09456
991.91171,0.09275
990.42192,0.13018
988.93213,0.14271
987.44234,0.13981
985.95255,0.13693
984.46276,0.14122
982.97297,0.12035
981.48319,0.11404
979.99340,0.09607
978.50361,0.08370
977.01382,0.07136
975.52403,0.05295
974.03424,0.04001
972.54446,0.01411
971.05467,0.02070
969.56488,0.00393
968.07509,0.00718
966.58530,0.01044
965.09551,0.01970
963.60573,0.00510
962.11594,0.01181
960.62615,0.01985
959.13636,0.01116
957.64657,0.00250
956.15678,0.02839
954.66699,0.03327
953.17721,0.04077
951.68742,0.02155
950.19763,0.02741
948.70784,0.03329
947.21805,0.05102
945.72826,0.08020
944.23848,0.09407
942.74869,0.11239
941.25890,0.11048
939.76911,0.11846
938.27932,0.12646
936.78953,0.16072
935.29974,0.18435
933.80996,0.19892
932.32017,0.21065
930.83038,0.21385
929.34059,0.21706
927.85080,0.23900
926.36101,0.28355
924.87123,0.34007
923.38144,0.40649
921.89165,0.43047
920.40186,0.45448
918.91207,0.54174
917.42228,0.64383
915.93250,0.80021
914.44271,0.97402
912.95292,1.06800
911.46313,1.16201
909.97334,1.40912
908.48355,1.63964
906.99376,1.80500
905.50398,1.90287
904.01419,1.95142
902.52440,2.00000
901.03461,1.98186
899.54482,1.94869
898.05503,1.76674
896.56525,1.58949
895.07546,1.47953
893.58567,1.36959
892.09588,1.14125
890.60609,0.86049
889.11630,0.64960
887.62651,0.47484
886.13673,0.40293
884.64694,0.33105
883.15715,0.23789
881.66736,0.18632
880.17757,0.14359
878.68778,0.13426
877.19800,0.12495
875.70821,0.06983
874.21842,0.05655
872.72863,0.04433
871.23884,0.03628
869.74905,0.03502
868.25927,0.03378
866.76948,0.01957
865.27969,0.02591
863.78990,0.04188
862.30011,0.02542
860.81032,0.04040
859.32053,0.05540
857.83075,0.05147
856.34096,0.07925
854.85117,0.09484
853.36138,0.11670
851.87159,0.12806
850.38180,0.13944
848.89202,0.17253
847.40223,0.18851
845.91244,0.20451
844.42265,0.21249
842.93286,0.22049
841.44307,0.22722
839.95329,0.25812
838.46350,0.24619
836.97371,0.25975
835.48392,0.25514
833.99413,0.25056
832.50434,0.24549
831.01455,0.25602
829.52477,0.23620
828.03498,0.19744
826.54519,0.19688
825.05540,0.19634
823.56561,0.16648
822.07582,0.14885
820.58604,0.11930
819.09625,0.12016
817.60646,0.12105
816.11667,0.12611
814.62688,0.13457
813.13709,0.12981
811.64730,0.12040
810.15752,0.11297
808.66773,0.10556
807.17794,0.12557
805.68815,0.16014
804.19836,0.13969
802.70857,0.14705
801.21879,0.15443
799.72900,0.14418
798.23921,0.11499
796.74942,0.09934
795.25963,0.12084
793.76984,0.14237
792.28006,0.14782
790.79027,0.14342
789.30048,0.16866
787.81069,0.20431
786.32090,0.21622
784.83111,0.22815
783.34132,0.25348
781.85154,0.28715
780.36175,0.32707
778.87196,0.34949
777.38217,0.37193
775.89238,0.38570
774.40259,0.39742
772.91281,0.37280
771.42302,0.36872
769.93323,0.36467
768.44344,0.31182
766.95365,0.29795
765.46386,0.24619
763.97407,0.22068
762.48429,0.19974
760.99450,0.17882
759.50471,0.11417
758.01492,0.10408
756.52513,0.09687
755.03534,0.09020
753.54556,0.08356
752.05577,0.08032
750.56598,0.08463
749.07619,0.05807
747.58640,0.05568
746.09661,0.05331
744.60683,0.03175
743.11704,0.04060
741.62725,0.02689
740.13746,0.02371
738.64767,0.02055
737.15788,0.02015
735.66809,0.00393
734.17831,0.00530
732.68852,0.01539
731.19873,0.02550
729.70894,0.02720
728.21915,0.03360
726.72936,0.03976
725.23958,0.03712
723.74979,0.03021
722.26000,0.02333
720.77021,0.00856
719.28042,0.00393
717.79063,0.01999
716.30084,0.02374
714.81106,0.02751
713.32127,0.02157
711.83148,0.02110
710.34169,0.02871
708.85190,0.03219
707.36211,0.03570
705.87233,0.03949
704.38254,0.04979
702.89275,0.06168
701.40296,0.05801
699.91317,0.05436
698.42338,0.04528
696.93360,0.07311
695.44381,0.09265
693.95402,0.08975
692.46423,0.08687
690.97444,0.11402
689.48465,0.14871
687.99486,0.17253
686.50508,0.17845
685.01529,0.18439
683.52550,0.21218
682.03571,0.19324
680.54592,0.21926
679.05613,0.24075
677.56635,0.26227
676.07656,0.27122
674.58677,0.25760
673.09698,0.22245
671.60719,0.20589
670.11740,0.18936
668.62761,0.16856
667.13783,0.13507
665.64804,0.13393
664.15825,0.13281
662.66846,0.09602
661.17867,0.08417
659.68888,0.05210
658.19910,0.04173
656.70931,0.03139
655.21952,0.01860
653.72973,0.03103
652.23994,0.04738
650.75015,0.04856
649.26037,0.04977
647.77058,0.03295
646.28079,0.02602
644.79100,0.02639
643.30121,0.02380
641.81142,0.02123
640.32163,0.02453
638.83185,0.00786
637.34206,0.00393
635.85227,0.00410
634.36248,0.00430
632.87269,0.01205
631.38290,0.00372
629.89312,0.01126
628.40333,0.01025
626.91354,0.00927
625.42375,0.00000
623.93396,0.01353
622.44417,0.01072
620.95438,0.00793
619.46460,0.02984
617.97481,0.03359
616.48502,0.04932
614.99523,0.06805
613.50544,0.08681
612.01565,0.13715
610.52587,0.14596
609.03608,0.18024
607.54629,0.20728
606.05650,0.23434
604.56671,0.29467
603.07692,0.31217
601.58714,0.33359
600.09735,0.35503
598.60756,0.38481
597.11777,0.40267
595.62798,0.44315
594.13819,0.42301
592.64840,0.40290
591.15862,0.37775
589.66883,0.32639
588.17904,0.26259
586.68925,0.23700
585.19946,0.21142
583.70967,0.16484
582.21989,0.13256
580.73010,0.11550
579.24031,0.09846
577.75052,0.08366
576.26073,0.07018
574.77094,0.04919
573.28115,0.04302
571.79137,0.03689
570.30158,0.06531
568.81179,0.07428
567.32200,0.08730
565.83221,0.10035
564.34242,0.11484
562.85264,0.12495
561.36285,0.11898
559.87306,0.14329
558.38327,0.16762
556.89348,0.17549
555.40369,0.19948
553.91391,0.20363
552.42412,0.20781
550.93433,0.20539
549.44454,0.21182
547.95475,0.18581
546.46496,0.19891
544.97517,0.21204
543.48539,0.23415
541.99560,0.27887
540.50581,0.29921
539.01602,0.31958
537.52623,0.37788
536.03644,0.42062
534.54666,0.39016
533.05687,0.41231
531.56708,0.43449
530.07729,0.50122
528.58750,0.53162
527.09771,0.55906
525.60792,0.58653
524.11814,0.62064
522.62835,0.69398
521.13856,0.73282
519.64877,0.76219
518.15898,0.79160
516.66919,0.83492
515.17941,0.87749
513.68962,0.87009
512.19983,0.86271
510.71004,0.80278
509.22025,0.72884
507.73046,0.64065
506.24068,0.59468
504.75089,0.54874
503.26110,0.46399
501.77131,0.36681
500.28152,0.33029
498.79173,0.29379
497.30194,0.24342
495.81216,0.19281
494.32237,0.17496
492.83258,0.15712
491.34279,0.11802
489.85300,0.08828
488.36321,0.06117
486.87343,0.07005
485.38364,0.07896
483.89385,0.07996
482.40406,0.08048
480.91427,0.08919
479.42448,0.09794
477.93469,0.13669
476.44491,0.13341
474.95512,0.15469
473.46533,0.17599
471.97554,0.18940
470.48575,0.19919
468.99596,0.17448
467.50618,0.16718
466.01639,0.15991
464.52660,0.13968
463.03681,0.11065
461.54702,0.09293
460.05723,0.07524
458.56745,0.05277
457.07766,0.05318
455.58787,0.04543
454.09808,0.03771
452.60829,0.04831
451.11850,0.02181
449.62871,0.01286
448.13893,0.00393
446.64914,0.01402
445.15935,0.01711
443.66956,0.03218
442.17977,0.03026
440.68998,0.02836
439.20020,0.01494
437.71041,0.02568
436.22062,0.02892
434.73083,0.03219
433.24104,0.02405
431.75125,0.05905
430.26146,0.04304
428.77168,0.02706
427.28189,0.03434
425.79210,0.03983
424.30231,0.05132
422.81252,0.06283
421.32273,0.04268
419.83295,0.03970
418.34316,0.03336
416.85337,0.02705
415.36358,0.04440
413.87379,0.03787
412.38400,0.03631
410.89422,0.03477
409.40443,0.04079
407.91464,0.04968
406.42485,0.04017
404.93506,0.03782
403.44527,0.03549
401.95548,0.04396
400.46570,0.04130
398.97591,0.02801
397.48612,0.01474
395.99633,0.02799
394.50654,0.01165
393.01675,0.01866
391.52697,0.02568
390.03718,0.03079
388.54739,0.04916
387.05760,0.03769
385.56781,0.02625
384.07802,0.02444
382.58824,0.01408
381.09845,0.02258
379.60866,0.03110
378.11887,0.00393
376.62908,0.01014
375.13929,0.00728
373.64950,0.00445
372.15972,0.01333
370.66993,0.02482
369.18014,0.02967
367.69035,0.03454
366.20056,0.03060
364.71077,0.04435
363.22099,0.02930
361.73120,0.01427
360.24141,0.04030
358.75162,0.05985
357.26183,0.06035
355.77204,0.06087
354.28225,0.03402
352.79247,0.04562
351.30268,0.05413
349.81289,0.06267
348.32310,0.06214
346.83331,0.02892
345.34352,0.02546
343.85374,0.02202
342.36395,0.04080
340.87416,0.02170
339.38437,0.02301
337.89458,0.02434
336.40479,0.04166
334.91501,0.02421
333.42522,0.01406
331.93543,0.00393
330.44564,0.02000
328.95585,0.01688
327.46606,0.01560
325.97627,0.01434
324.48649,0.03262
322.99670,0.07222
321.50691,0.07991
320.01712,0.08761
318.52733,0.07405
317.03754,0.06545
315.54776,0.05673
314.05797,0.04805
312.56818,0.07691
311.07839,0.08736
309.58860,0.07329
308.09881,0.05925
306.60902,0.04277
305.11924,0.07642
303.62945,0.05402
302.13966,0.03163
300.64987,0.00434
299.16008,0.00393
