1778.52000,0.01759
1777.03021,0.01895
1775.54042,0.02207
1774.05063,0.01729
1772.56085,0.02070
1771.07106,0.01868
1769.58127,0.03154
1768.09148,0.00606
1766.60169,0.01922
1765.11190,0.02398
1763.62212,0.01317
1762.13233,0.01971
1760.64254,0.02083
1759.15275,0.02049
1757.66296,0.02537
1756.17317,0.01468
1754.68339,0.01193
1753.19360,0.01143
1751.70381,0.00922
1750.21402,0.01125
1748.72423,0.01330
1747.23444,0.00769
1745.74465,0.01127
1744.25487,0.01092
1742.76508,0.00637
1741.27529,0.00606
1739.78550,0.00941
1738.29571,0.01599
1736.80592,0.01072
1735.31614,0.02082
1733.82635,0.01089
1732.33656,0.00197
1730.84677,0.00076
1729.35698,0.00204
1727.86719,0.01126
1726.37740,0.00491
1724.88762,0.00800
1723.39783,0.00813
1721.90804,0.00978
1720.41825,0.00525
1718.92846,0.00606
1717.43867,0.01263
1715.94889,0.01352
1714.45910,0.01518
1712.96931,0.01092
1711.47952,0.00248
1709.98973,0.00000
1708.49994,0.00225
1707.01016,0.00985
1705.52037,0.01748
1704.03058,0.00693
1702.54079,0.00482
1701.05100,0.01289
1699.56121,0.00439
1698.07142,0.00779
1696.58164,0.01321
1695.09185,0.01072
1693.60206,0.01122
1692.11227,0.00606
1690.62248,0.01354
1689.13269,0.01659
1687.64291,0.01272
1686.15312,0.02300
1684.66333,0.00606
1683.17354,0.01606
1681.68375,0.01841
1680.19396,0.01608
1678.70417,0.01649
1677.21439,0.02089
1675.72460,0.02482
1674.23481,0.02282
1672.74502,0.02828
1671.25523,0.02337
1669.76544,0.04570
1668.27566,0.03712
1666.78587,0.04267
1665.29608,0.04453
1663.80629,0.04097
1662.31650,0.04139
1660.82671,0.05125
1659.33693,0.06112
1657.84714,0.05592
1656.35735,0.04876
1654.86756,0.04583
1653.37777,0.05630
1651.88798,0.05812
1650.39819,0.07308
1648.90841,0.06579
1647.41862,0.06372
1645.92883,0.07034
1644.43904,0.07698
1642.94925,0.07028
1641.45946,0.09430
1639.96968,0.07576
1638.47989,0.08027
1636.99010,0.07638
1635.50031,0.08093
1634.01052,0.06422
1632.52073,0.06684
1631.03094,0.07913
1629.54116,0.06893
1628.05137,0.07459
1626.56158,0.07458
1625.07179,0.07211
1623.58200,0.07735
1622.09221,0.07716
1620.60243,0.08169
1619.11264,0.08056
1617.62285,0.08514
1616.13306,0.07911
1614.64327,0.08720
1613.15348,0.09161
1611.66370,0.08985
1610.17391,0.09381
1608.68412,0.09754
1607.19433,0.07827
1605.70454,0.09022
1604.21475,0.08907
1602.72496,0.08795
1601.23518,0.07150
1599.74539,0.08304
1598.25560,0.09065
1596.76581,0.08541
1595.27602,0.09059
1593.78623,0.08961
1592.29645,0.08518
1590.80666,0.08077
1589.31687,0.07688
1587.82708,0.07327
1586.33729,0.07834
1584.84750,0.08715
1583.35771,0.07147
1581.86793,0.08825
1580.37814,0.08524
1578.88835,0.06344
1577.39856,0.06469
1575.90877,0.07339
1574.41898,0.06083
1572.92920,0.06635
1571.43941,0.05161
1569.94962,0.04740
1568.45983,0.04322
1566.97004,0.04389
1565.48025,0.03592
1563.99047,0.03589
1562.50068,0.03515
1561.01089,0.04333
1559.52110,0.03620
1558.03131,0.03453
1556.54152,0.02100
1555.05173,0.02260
1553.56195,0.02893
1552.07216,0.02191
1550.58237,0.01070
1549.09258,0.01487
1547.60279,0.01089
1546.11300,0.01881
1544.62322,0.02453
1543.13343,0.01889
1541.64364,0.01030
1540.15385,0.00817
1538.66406,0.00606
1537.17427,0.01554
1535.68448,0.01068
1534.19470,0.01377
1532.70491,0.01887
1531.21512,0.03066
1529.72533,0.03283
1528.23554,0.03478
1526.74575,0.02957
1525.25597,0.04864
1523.76618,0.03926
1522.27639,0.04848
1520.78660,0.05004
1519.29681,0.03678
1517.80702,0.04260
1516.31724,0.05537
1514.82745,0.04639
1513.33766,0.04745
1511.84787,0.04853
1510.35808,0.05125
1508.86829,0.06290
1507.37850,0.04908
1505.88872,0.05855
1504.39893,0.05220
1502.90914,0.05974
1501.41935,0.08488
1499.92956,0.08157
1498.43977,0.08992
1496.94999,0.07997
1495.46020,0.07698
1493.97041,0.09431
1492.48062,0.09607
1490.99083,0.09760
1489.50104,0.11946
1488.01125,0.12859
1486.52147,0.13774
1485.03168,0.13417
1483.54189,0.15587
1482.05210,0.15458
1480.56231,0.15924
1479.07252,0.15799
1477.58274,0.17533
1476.09295,0.18007
1474.60316,0.18062
1473.11337,0.19035
1471.62358,0.21348
1470.13379,0.21261
1468.64401,0.21227
1467.15422,0.21219
1465.66443,0.22947
1464.17464,0.24677
1462.68485,0.25369
1461.19506,0.29233
1459.70527,0.33495
1458.21549,0.37487
1456.72570,0.41927
1455.23591,0.48894
1453.74612,0.54725
1452.25633,0.60533
1450.76654,0.64462
1449.27676,0.63369
1447.78697,0.61188
1446.29718,0.59381
1444.80739,0.58121
1443.31760,0.56863
1441.82781,0.54544
1440.33802,0.49652
1438.84824,0.46099
1437.35845,0.43167
1435.86866,0.44842
1434.37887,0.45009
1432.88908,0.45427
1431.39929,0.51243
1429.90951,0.57952
1428.41972,0.65753
1426.92993,0.74621
1425.44014,0.78936
1423.95035,0.80160
1422.46056,0.81385
1420.97078,0.84668
1419.48099,0.85403
1417.99120,0.88888
1416.50141,0.86459
1415.01162,0.82671
1413.52183,0.80074
1412.03204,0.75894
1410.54226,0.72460
1409.05247,0.65710
1407.56268,0.59656
1406.07289,0.55437
1404.58310,0.52680
1403.09331,0.49925
1401.60353,0.44376
1400.11374,0.40858
1398.62395,0.33482
1397.13416,0.30117
1395.64437,0.25815
1394.15458,0.22752
1392.66479,0.20410
1391.17501,0.14704
1389.68522,0.11970
1388.19543,0.10006
1386.70564,0.08812
1385.21585,0.07620
1383.72606,0.06430
1382.23628,0.04377
1380.74649,0.03489
1379.25670,0.02702
1377.76691,0.01893
1376.27712,0.00641
1374.78733,0.00653
1373.29755,0.01708
1371.80776,0.01329
1370.31797,0.00606
1368.82818,0.00893
1367.33839,0.01183
1365.84860,0.02007
1364.35881,0.02611
1362.86903,0.04751
1361.37924,0.05162
1359.88945,0.07233
1358.39966,0.09207
1356.90987,0.12149
1355.42008,0.15119
1353.93030,0.21878
1352.44051,0.24344
1350.95072,0.26813
1349.46093,0.34421
1347.97114,0.38788
1346.48135,0.46499
1344.99156,0.51589
1343.50178,0.55443
1342.01199,0.61998
1340.52220,0.66996
1339.03241,0.71055
1337.54262,0.81528
1336.05283,0.82287
1334.56305,0.83048
1333.07326,0.86498
1331.58347,0.86212
1330.09368,0.83923
1328.60389,0.85474
1327.11410,0.84229
1325.62432,0.81923
1324.13453,0.75559
1322.64474,0.68702
1321.15495,0.67169
1319.66516,0.64637
1318.17537,0.62107
1316.68558,0.57586
1315.19580,0.53909
1313.70601,0.49071
1312.21622,0.46984
1310.72643,0.45096
1309.23664,0.42221
1307.74685,0.35784
1306.25707,0.33680
1304.76728,0.32694
1303.27749,0.31709
1301.78770,0.26964
1300.29791,0.24449
1298.80812,0.18966
1297.31834,0.17174
1295.82855,0.15211
1294.33876,0.10948
1292.84897,0.10747
1291.35918,0.08469
1289.86939,0.07951
1288.37960,0.07435
1286.88982,0.07268
1285.40003,0.06906
1283.91024,0.06397
1282.42045,0.04529
1280.93066,0.03084
1279.44087,0.03349
1277.95109,0.02825
1276.46130,0.02476
1274.97151,0.01759
1273.48172,0.01043
1271.99193,0.01519
1270.50214,0.01006
1269.01235,0.02303
1267.52257,0.01002
1266.03278,0.01289
1264.54299,0.01107
1263.05320,0.03280
1261.56341,0.02410
1260.07362,0.01542
1258.58384,0.01914
1257.09405,0.00457
1255.60426,0.01471
1254.11447,0.00977
1252.62468,0.02120
1251.13489,0.01111
1249.64511,0.01391
1248.15532,0.00981
1246.66553,0.01378
1245.17574,0.01777
1243.68595,0.00730
1242.19616,0.00503
1240.70637,0.01140
1239.21659,0.01755
1237.72680,0.02001
1236.23701,0.00937
1234.74722,0.02327
1233.25743,0.01589
1231.76764,0.00854
1230.27786,0.01013
1228.78807,0.01372
1227.29828,0.01758
1225.80849,0.02740
1224.31870,0.00606
1222.82891,0.01666
1221.33912,0.01467
1219.84934,0.01851
1218.35955,0.02237
1216.86976,0.01500
1215.37997,0.03636
1213.89018,0.05156
1212.40039,0.04772
1210.91061,0.05183
1209.42082,0.04581
1207.93103,0.04587
1206.44124,0.04596
1204.95145,0.04496
1203.46166,0.03458
1201.97188,0.05293
1200.48209,0.03195
1198.99230,0.02337
1197.50251,0.03387
1196.01272,0.03648
1194.52293,0.02908
1193.03314,0.02170
1191.54336,0.01943
1190.05357,0.02237
1188.56378,0.02361
1187.07399,0.02066
1185.58420,0.01451
1184.09441,0.01136
1182.60463,0.01306
1181.11484,0.01478
1179.62505,0.00972
1178.13526,0.00691
1176.64547,0.01922
1175.15568,0.00606
1173.66589,0.02456
1172.17611,0.02823
1170.68632,0.02573
1169.19653,0.02326
1167.70674,0.01437
1166.21695,0.02185
1164.72716,0.03553
1163.23738,0.04207
1161.74759,0.04020
1160.25780,0.05866
1158.76801,0.05685
1157.27822,0.05505
1155.78843,0.06542
1154.29865,0.07209
1152.80886,0.07630
1151.31907,0.08079
1149.82928,0.08679
1148.33949,0.09553
1146.84970,0.10207
1145.35991,0.10864
1143.87013,0.11745
1142.38034,0.14361
1140.89055,0.14232
1139.40076,0.14774
1137.91097,0.15690
1136.42118,0.15394
1134.93140,0.17094
1133.44161,0.18796
1131.95182,0.20142
1130.46203,0.20846
1128.97224,0.19745
1127.48245,0.19241
1125.99266,0.22403
1124.50288,0.24552
1123.01309,0.24439
1121.52330,0.24327
1120.03351,0.22077
1118.54372,0.20671
1117.05393,0.20653
1115.56415,0.21331
1114.07436,0.20675
1112.58457,0.19711
1111.09478,0.18750
1109.60499,0.20105
1108.11520,0.21686
1106.62542,0.21511
1105.13563,0.20274
1103.64584,0.20501
1102.15605,0.18575
1100.66626,0.18026
1099.17647,0.17480
1097.68668,0.17913
1096.19690,0.17953
1094.70711,0.16460
1093.21732,0.16603
1091.72753,0.16278
1090.23774,0.15659
1088.74795,0.15042
1087.25817,0.14501
1085.76838,0.12973
1084.27859,0.13328
1082.78880,0.14008
1081.29901,0.13699
1079.80922,0.12774
1078.31943,0.13485
1076.82965,0.14199
1075.33986,0.15310
1073.85007,0.16598
1072.36028,0.17789
1070.87049,0.18709
1069.38070,0.19608
1067.89092,0.19890
1066.40113,0.20174
1064.91134,0.23233
1063.42155,0.30502
1061.93176,0.38022
1060.44197,0.44058
1058.95219,0.52176
1057.46240,0.56175
1055.97261,0.60177
1054.48282,0.69713
1052.99303,0.75167
1051.50324,0.75375
1050.01345,0.74818
1048.52367,0.76888
1047.03388,0.75791
1045.54409,0.74697
1044.05430,0.75981
1042.56451,0.69965
1041.07472,0.61179
1039.58494,0.55044
1038.09515,0.52723
1036.60536,0.50405
1035.11557,0.48089
1033.62578,0.42309
1032.13599,0.37349
1030.64620,0.32094
1029.15642,0.27015
1027.66663,0.25107
1026.17684,0.23201
1024.68705,0.21149
1023.19726,0.19446
1021.70747,0.15715
1020.21769,0.13273
1018.72790,0.09795
1017.23811,0.09438
1015.74832,0.09083
1014.25853,0.07492
1012.76874,0.05484
1011.27896,0.06423
1009.78917,0.05186
1008.29938,0.04397
1006.80959,0.03957
1005.31980,0.03519
1003.83001,0.02391
1002.34022,0.01290
1000.85044,0.01082
999.36065,0.01148
997.87086,0.02455
996.38107,0.03764
994.89128,0.05298
993.40149,0.05523
991.91171,0.06245
990.42192,0.07637
988.93213,0.11013
987.44234,0.09229
985.95255,0.07448
984.46276,0.07389
982.97297,0.06813
981.48319,0.06610
979.99340,0.06806
978.50361,0.05445
977.01382,0.04086
975.52403,0.02630
974.03424,0.03504
972.54446,0.01458
971.05467,0.00703
969.56488,0.00816
968.07509,0.01426
966.58530,0.02039
965.09551,0.00600
963.60573,0.01901
962.11594,0.00606
960.62615,0.01667
959.13636,0.01727
957.64657,0.01790
956.15678,0.01719
954.66699,0.02740
953.17721,0.03713
951.68742,0.03525
950.19763,0.04528
948.70784,0.05533
947.21805,0.05402
945.72826,0.08392
944.23848,0.09428
942.74869,0.10591
941.25890,0.12549
939.76911,0.13382
938.27932,0.14218
936.78953,0.17370
935.29974,0.18668
933.80996,0.19672
932.32017,0.19861
930.83038,0.21129
929.34059,0.22399
927.85080,0.22372
926.36101,0.26333
924.87123,0.29059
923.38144,0.31415
921.89165,0.34814
920.40186,0.38215
918.91207,0.48153
917.42228,0.57079
915.93250,0.73161
914.44271,0.91969
912.95292,1.02214
911.46313,1.12461
909.97334,1.30459
908.48355,1.52915
906.99376,1.70595
905.50398,1.88649
904.01419,1.93895
902.52440,1.99143
901.03461,2.00000
899.54482,1.90734
898.05503,1.75653
896.56525,1.63025
895.07546,1.52466
893.58567,1.41910
892.09588,1.17011
890.60609,0.89564
889.11630,0.65709
887.62651,0.47352
886.13673,0.42142
884.64694,0.36934
883.15715,0.25441
881.66736,0.17787
880.17757,0.13552
878.68778,0.11708
877.19800,0.09866
875.70821,0.07123
874.21842,0.04927
872.72863,0.03698
871.23884,0.03141
869.74905,0.02548
868.25927,0.01958
866.76948,0.02324
865.27969,0.02221
863.78990,0.01402
862.30011,0.02418
860.81032,0.02867
859.32053,0.03318
857.83075,0.05232
856.34096,0.05886
854.85117,0.06963
853.36138,0.06755
851.87159,0.07701
850.38180,0.08648
848.89202,0.12482
847.40223,0.14264
845.91244,0.14637
844.42265,0.14084
842.93286,0.13533
841.44307,0.16265
839.95329,0.18108
838.46350,0.18691
836.97371,0.19696
835.48392,0.19182
833.99413,0.18670
832.50434,0.19014
831.01455,0.19708
829.52477,0.18101
828.03498,0.14566
826.54519,0.14920
825.05540,0.15275
823.56561,0.14198
822.07582,0.12950
820.58604,0.12000
819.09625,0.11351
817.60646,0.10703
816.11667,0.10974
814.62688,0.11099
813.13709,0.10236
811.64730,0.10538
810.15752,0.09878
808.66773,0.09220
807.17794,0.09331
805.68815,0.10212
804.19836,0.11987
802.70857,0.11895
801.21879,0.11805
799.72900,0.11260
798.23921,0.12178
796.74942,0.10647
795.25963,0.11346
793.76984,0.12048
792.28006,0.10623
790.79027,0.11206
789.30048,0.13846
787.81069,0.14953
786.32090,0.16743
784.83111,0.18535
783.34132,0.22942
781.85154,0.24083
780.36175,0.27628
778.87196,0.27462
777.38217,0.27298
775.89238,0.32557
774.40259,0.32918
772.91281,0.29865
771.42302,0.28621
769.93323,0.27379
768.44344,0.25571
766.95365,0.20967
765.46386,0.18495
763.97407,0.14466
762.48429,0.14065
760.99450,0.13667
759.50471,0.10288
758.01492,0.08990
756.52513,0.08166
755.03534,0.06935
753.54556,0.05707
752.05577,0.05112
750.56598,0.06698
749.07619,0.05217
747.58640,0.04889
746.09661,0.04563
744.60683,0.02916
743.11704,0.02260
741.62725,0.02028
740.13746,0.01316
738.64767,0.00606
737.15788,0.02477
735.66809,0.00984
734.17831,0.01176
732.68852,0.01791
731.19873,0.02409
729.70894,0.01767
728.21915,0.01003
726.72936,0.01840
725.23958,0.02159
723.74979,0.02023
722.26000,0.01889
720.77021,0.00606
719.28042,0.03078
717.79063,0.02706
716.30084,0.02323
714.81106,0.01943
713.32127,0.01379
711.83148,0.01363
710.34169,0.02883
708.85190,0.03527
707.36211,0.04174
705.87233,0.05008
704.38254,0.04830
702.89275,0.05124
701.40296,0.05507
699.91317,0.05893
698.42338,0.07754
696.93360,0.10360
695.44381,0.11507
693.95402,0.12608
692.46423,0.13710
690.97444,0.12984
689.48465,0.14859
687.99486,0.19409
686.50508,0.20249
685.01529,0.21091
683.52550,0.23025
682.03571,0.24713
680.54592,0.27220
679.05613,0.26228
677.56635,0.25237
676.07656,0.26489
674.58677,0.22520
673.09698,0.24123
671.60719,0.23687
670.11740,0.23252
668.62761,0.20729
667.13783,0.15905
665.64804,0.13955
664.15825,0.12007
662.66846,0.12117
661.17867,0.06956
659.68888,0.06228
658.19910,0.05330
656.70931,0.04434
655.21952,0.04332
653.72973,0.03935
652.23994,0.04358
650.75015,0.03248
649.26037,0.02141
647.77058,0.01085
646.28079,0.02483
644.79100,0.03759
643.30121,0.03205
641.81142,0.02654
640.32163,0.03021
638.83185,0.02425
637.34206,0.02277
635.85227,0.02107
634.36248,0.01938
632.87269,0.02465
631.38290,0.00965
629.89312,0.01175
628.40333,0.00942
626.91354,0.00711
625.42375,0.00606
623.93396,0.02057
622.44417,0.02730
620.95438,0.03406
619.46460,0.05185
617.97481,0.06100
616.48502,0.08429
614.99523,0.10092
613.50544,0.11757
612.01565,0.12656
610.52587,0.14697
609.03608,0.17780
607.54629,0.20333
606.05650,0.22889
604.56671,0.26127
603.07692,0.29962
601.58714,0.32116
600.09735,0.34272
598.60756,0.37965
597.11777,0.37775
595.62798,0.40953
594.13819,0.39962
592.64840,0.38973
591.15862,0.35598
589.66883,0.33365
588.17904,0.28756
586.68925,0.26082
585.19946,0.23409
583.70967,0.17075
582.21989,0.11486
580.73010,0.10479
579.24031,0.09474
577.75052,0.07308
576.26073,0.05467
574.77094,0.03800
573.28115,0.03944
571.79137,0.04089
570.30158,0.05178
568.81179,0.07408
567.32200,0.07498
565.83221,0.07591
564.34242,0.08615
562.85264,0.09715
561.36285,0.11437
559.87306,0.12195
558.38327,0.12956
556.89348,0.13471
555.40369,0.14137
553.91391,0.13605
552.42412,0.13075
550.93433,0.13278
549.44454,0.12642
547.95475,0.14359
546.46496,0.15287
544.97517,0.16217
543.48539,0.19179
541.99560,0.22070
540.50581,0.23267
539.01602,0.24466
537.52623,0.29517
536.03644,0.33530
534.54666,0.37249
533.05687,0.40104
531.56708,0.42961
530.07729,0.47405
528.58750,0.50167
527.09771,0.53328
525.60792,0.56492
524.11814,0.60425
522.62835,0.67380
521.13856,0.71417
519.64877,0.75555
518.15898,0.79696
516.66919,0.83393
515.17941,0.85186
513.68962,0.84469
512.19983,0.83755
510.71004,0.80109
509.22025,0.72158
507.73046,0.65051
506.24068,0.61190
504.75089,0.57330
503.26110,0.45725
501.77131,0.36944
500.28152,0.32560
498.79173,0.28177
497.30194,0.22869
495.81216,0.16548
494.32237,0.14537
492.83258,0.12528
491.34279,0.08418
489.85300,0.06933
488.36321,0.06243
486.87343,0.06992
485.38364,0.07742
483.89385,0.06663
482.40406,0.08062
480.91427,0.08522
479.42448,0.08985
477.93469,0.10094
476.44491,0.14126
474.95512,0.14843
473.46533,0.15563
471.97554,0.14824
470.48575,0.14335
468.99596,0.15805
467.50618,0.14194
466.01639,0.12586
464.52660,0.09804
463.03681,0.09104
461.54702,0.07924
460.05723,0.06746
458.56745,0.04394
457.07766,0.02788
455.58787,0.02793
454.09808,0.02800
452.60829,0.00606
451.11850,0.01758
449.62871,0.01080
448.13893,0.00404
446.64914,0.00675
445.15935,0.01492
443.66956,0.02263
442.17977,0.02132
440.68998,0.02003
439.20020,0.01394
437.71041,0.01902
436.22062,0.02572
434.73083,0.03245
433.24104,0.04081
431.75125,0.04598
430.26146,0.03347
428.77168,0.02098
427.28189,0.03612
425.79210,0.02256
424.30231,0.03465
422.81252,0.04677
421.32273,0.04343
419.83295,0.03566
418.34316,0.02866
416.85337,0.02168
415.36358,0.00606
413.87379,0.02584
412.38400,0.02535
410.89422,0.02487
409.40443,0.01254
407.91464,0.01237
406.42485,0.03350
404.93506,0.03201
403.44527,0.03054
401.95548,0.02946
400.46570,0.02693
398.97591,0.02850
397.48612,0.03009
395.99633,0.01475
394.50654,0.01503
393.01675,0.01620
391.52697,0.01739
390.03718,0.01749
388.54739,0.01068
387.05760,0.00949
385.56781,0.00832
384.07802,0.00606
382.58824,0.02004
381.09845,0.01893
379.60866,0.01786
378.11887,0.01556
376.62908,0.03013
375.13929,0.02454
373.64950,0.01897
372.15972,0.01529
370.66993,0.01855
369.18014,0.01771
367.69035,0.01688
366.20056,0.03279
364.71077,0.02051
363.22099,0.02705
361.73120,0.03363
360.24141,0.00606
358.75162,0.02338
357.26183,0.02402
355.77204,0.02467
354.28225,0.05741
352.79247,0.07458
351.30268,0.05228
349.81289,0.03001
348.32310,0.05542
346.83331,0.03678
345.34352,0.03636
343.85374,0.03597
342.36395,0.03820
340.87416,0.03079
339.38437,0.02577
337.89458,0.02076
336.40479,0.01714
334.91501,0.02320
333.42522,0.02346
331.93543,0.02375
330.44564,0.02418
328.95585,0.03801
327.46606,0.03923
325.97627,0.04047
324.48649,0.02268
322.99670,0.03262
321.50691,0.03998
320.01712,0.04736
318.52733,0.04994
317.03754,0.03917
315.54776,0.06185
314.05797,0.08455
312.56818,0.11841
311.07839,0.08571
309.58860,0.06751
308.09881,0.04933
306.60902,0.03254
305.11924,0.02666
303.62945,0.02700
302.13966,0.00798
300.64987,0.00606
299.16008,0.00606
