1778.52000,0.00077
1777.03021,0.00036
1775.54042,0.00020
1774.05063,0.00122
1772.56085,0.00571
1771.07106,0.00884
1769.58127,0.01361
1768.09148,-0.00000
1766.60169,0.00367
1765.11190,0.00644
1763.62212,0.00210
1762.13233,0.00860
1760.64254,0.01305
1759.15275,0.00695
1757.66296,0.00570
1756.17317,0.00655
1754.68339,0.01179
1753.19360,0.00693
1751.70381,0.00831
1750.21402,0.00189
1748.72423,0.00608
1747.23444,0.00155
1745.74465,0.01020
1744.25487,0.01496
1742.76508,0.01170
1741.27529,0.01904
1739.78550,0.00570
1738.29571,0.01350
1736.80592,0.02569
1735.31614,0.02341
1733.82635,0.01242
1732.33656,0.01341
1730.84677,0.00913
1729.35698,0.01109
1727.86719,0.01100
1726.37740,0.01117
1724.88762,0.00768
1723.39783,0.01503
1721.90804,0.00400
1720.41825,0.01001
1718.92846,0.00570
1717.43867,0.02025
1715.94889,0.01481
1714.45910,0.03125
1712.96931,0.01780
1711.47952,0.01290
1709.98973,0.01445
1708.49994,0.01190
1707.01016,0.01109
1705.52037,0.01030
1704.03058,0.01771
1702.54079,0.01386
1701.05100,0.01557
1699.56121,0.02764
1698.07142,0.00570
1696.58164,0.01570
1695.09185,0.02343
1693.60206,0.02082
1692.11227,0.02952
1690.62248,0.02466
1689.13269,0.03179
1687.64291,0.04079
1686.15312,0.04383
1684.66333,0.02849
1683.17354,0.04101
1681.68375,0.03975
1680.19396,0.05438
1678.70417,0.03316
1677.21439,0.04164
1675.72460,0.05749
1674.23481,0.05406
1672.74502,0.05524
1671.25523,0.06174
1669.76544,0.07103
1668.27566,0.07620
1666.78587,0.06322
1665.29608,0.06038
1663.80629,0.08173
1662.31650,0.08101
1660.82671,0.08653
1659.33693,0.09437
1657.84714,0.09672
1656.35735,0.08023
1654.86756,0.06377
1653.37777,0.07355
1651.88798,0.08496
1650.39819,0.08168
1648.90841,0.09084
1647.41862,0.09244
1645.92883,0.08555
1644.43904,0.07868
1642.94925,0.09093
1641.45946,0.08043
1639.96968,0.10400
1638.47989,0.10390
1636.99010,0.09210
1635.50031,0.09734
1634.01052,0.10375
1632.52073,0.11157
1631.03094,0.10676
1629.54116,0.08910
1628.05137,0.10251
1626.56158,0.08650
1625.07179,0.06730
1623.58200,0.08929
1622.09221,0.08739
1620.60243,0.10736
1619.11264,0.11126
1617.62285,0.10023
1616.13306,0.09359
1614.64327,0.08560
1613.15348,0.10891
1611.66370,0.10487
1610.17391,0.10937
1608.68412,0.11252
1607.19433,0.10948
1605.70454,0.10922
1604.21475,0.10301
1602.72496,0.09682
1601.23518,0.09226
1599.74539,0.09325
1598.25560,0.10461
1596.76581,0.10358
1595.27602,0.10855
1593.78623,0.11056
1592.29645,0.09672
1590.80666,0.09578
1589.31687,0.08314
1587.82708,0.07834
1586.33729,0.08553
1584.84750,0.09573
1583.35771,0.10802
1581.86793,0.10010
1580.37814,0.09243
1578.88835,0.08111
1577.39856,0.08246
1575.90877,0.09212
1574.41898,0.05855
1572.92920,0.07148
1571.43941,0.05820
1569.94962,0.05738
1568.45983,0.05657
1566.97004,0.05901
1565.48025,0.05734
1563.99047,0.04901
1562.50068,0.03980
1561.01089,0.04440
1559.52110,0.04466
1558.03131,0.04334
1556.54152,0.03859
1555.05173,0.03110
1553.56195,0.02686
1552.07216,0.04288
1550.58237,0.05226
1549.09258,0.02508
1547.60279,0.02416
1546.11300,0.00094
1544.62322,0.02201
1543.13343,0.02608
1541.64364,0.04076
1540.15385,0.03257
1538.66406,0.02441
1537.17427,0.02812
1535.68448,0.01943
1534.19470,0.00570
1532.70491,0.01034
1531.21512,0.01547
1529.72533,0.03051
1528.23554,0.04121
1526.74575,0.03951
1525.25597,0.04358
1523.76618,0.05205
1522.27639,0.05548
1520.78660,0.05365
1519.29681,0.03504
1517.80702,0.05281
1516.31724,0.05657
1514.82745,0.06472
1513.33766,0.05875
1511.84787,0.05281
1510.35808,0.07391
1508.86829,0.05778
1507.37850,0.07088
1505.88872,0.07113
1504.39893,0.05484
1502.90914,0.05997
1501.41935,0.05546
1499.92956,0.06960
1498.43977,0.08515
1496.94999,0.09313
1495.46020,0.09424
1493.97041,0.10779
1492.48062,0.12021
1490.99083,0.10322
1489.50104,0.13249
1488.01125,0.13912
1486.52147,0.14577
1485.03168,0.16706
1483.54189,0.16238
1482.05210,0.18279
1480.56231,0.19173
1479.07252,0.20552
1477.58274,0.21934
1476.09295,0.22536
1474.60316,0.23808
1473.11337,0.25795
1471.62358,0.24909
1470.13379,0.23611
1468.64401,0.25859
1467.15422,0.29074
1465.66443,0.30452
1464.17464,0.31833
1462.68485,0.34067
1461.19506,0.36073
1459.70527,0.42337
1458.21549,0.46326
1456.72570,0.49950
1455.23591,0.55002
1453.74612,0.60493
1452.25633,0.67873
1450.76654,0.68632
1449.27676,0.70933
1447.78697,0.68246
1446.29718,0.68965
1444.80739,0.67111
1443.31760,0.65259
1441.82781,0.59798
1440.33802,0.54891
1438.84824,0.51989
1437.35845,0.50675
1435.86866,0.48697
1434.37887,0.49528
1432.88908,0.51327
1431.39929,0.56648
1429.90951,0.60637
1428.41972,0.64583
1426.92993,0.75891
1425.44014,0.82671
1423.95035,0.84404
1422.46056,0.86139
1420.97078,0.88510
1419.48099,0.89732
1417.99120,0.94776
1416.50141,0.92875
1415.01162,0.87711
1413.52183,0.83124
1412.03204,0.77275
1410.54226,0.69610
1409.05247,0.62845
1407.56268,0.58245
1406.07289,0.54268
1404.58310,0.52663
1403.09331,0.51060
1401.60353,0.43065
1400.11374,0.37373
1398.62395,0.36238
1397.13416,0.32413
1395.64437,0.26567
1394.15458,0.22863
1392.66479,0.19897
1391.17501,0.18129
1389.68522,0.14225
1388.19543,0.10921
1386.70564,0.10035
1385.21585,0.09151
1383.72606,0.06384
1382.23628,0.04723
1380.74649,0.03731
1379.25670,0.02259
1377.76691,0.02928
1376.27712,0.00518
1374.78733,0.00570
1373.29755,0.00748
1371.80776,0.02354
1370.31797,0.02329
1368.82818,0.02261
1367.33839,0.02196
1365.84860,0.03006
1364.35881,0.04739
1362.86903,0.04175
1361.37924,0.05821
1359.88945,0.08114
1358.39966,0.11581
1356.90987,0.13764
1355.42008,0.18410
1353.93030,0.23196
1352.44051,0.25788
1350.95072,0.28383
1349.46093,0.37685
1347.97114,0.41928
1346.48135,0.48567
1344.99156,0.55760
1343.50178,0.63852
1342.01199,0.66220
1340.52220,0.70246
1339.03241,0.73906
1337.54262,0.81157
1336.05283,0.84386
1334.56305,0.87616
1333.07326,0.89308
1331.58347,0.90496
1330.09368,0.86673
1328.60389,0.83749
1327.11410,0.84668
1325.62432,0.83727
1324.13453,0.80350
1322.64474,0.77275
1321.15495,0.71257
1319.66516,0.68509
1318.17537,0.65762
1316.68558,0.60810
1315.19580,0.60070
1313.70601,0.52225
1312.21622,0.50086
1310.72643,0.46064
1309.23664,0.44551
1307.74685,0.40557
1306.25707,0.38336
1304.76728,0.35853
1303.27749,0.33372
1301.78770,0.29572
1300.29791,0.25635
1298.80812,0.23174
1297.31834,0.19242
1295.82855,0.16348
1294.33876,0.13686
1292.84897,0.11372
1291.35918,0.10993
1289.86939,0.10086
1288.37960,0.09183
1286.88982,0.09799
1285.40003,0.10096
1283.91024,0.11914
1282.42045,0.08720
1280.93066,0.06701
1279.44087,0.05558
1277.95109,0.04856
1276.46130,0.03833
1274.97151,0.04331
1273.48172,0.04831
1271.99193,0.04023
1270.50214,0.03999
1269.01235,0.03633
1267.52257,0.04074
1266.03278,0.03252
1264.54299,0.00570
1263.05320,0.03309
1261.56341,0.03669
1260.07362,0.04032
1258.58384,0.03166
1257.09405,0.01636
1255.60426,0.00959
1254.11447,0.00768
1252.62468,0.01730
1251.13489,0.01198
1249.64511,0.00830
1248.15532,0.02834
1246.66553,0.02827
1245.17574,0.02823
1243.68595,0.03454
1242.19616,0.02178
1240.70637,0.02791
1239.21659,0.02508
1237.72680,0.01378
1236.23701,0.03631
1234.74722,0.02275
1233.25743,0.01634
1231.76764,0.00996
1230.27786,0.01212
1228.78807,0.00671
1227.29828,0.01522
1225.80849,0.02835
1224.31870,0.02955
1222.82891,0.02663
1221.33912,0.02534
1219.84934,0.02649
1218.35955,0.02767
1216.86976,0.03773
1215.37997,0.04804
1213.89018,0.04711
1212.40039,0.05678
1210.91061,0.04623
1209.42082,0.04928
1207.93103,0.04982
1206.44124,0.05039
1204.95145,0.05558
1203.46166,0.04538
1201.97188,0.05890
1200.48209,0.05634
1198.99230,0.04691
1197.50251,0.04532
1196.01272,0.05089
1194.52293,0.04164
1193.03314,0.03242
1191.54336,0.03783
1190.05357,0.01405
1188.56378,0.00570
1187.07399,0.00961
1185.58420,0.00802
1184.09441,0.03429
1182.60463,0.02929
1181.11484,0.02433
1179.62505,0.01202
1178.13526,0.01171
1176.64547,0.00612
1175.15568,0.00599
1173.66589,0.01171
1172.17611,0.01332
1170.68632,0.01035
1169.19653,0.00741
1167.70674,0.01622
1166.21695,0.02735
1164.72716,0.03621
1163.23738,0.03198
1161.74759,0.04411
1160.25780,0.07627
1158.76801,0.06636
1157.27822,0.05648
1155.78843,0.07400
1154.29865,0.06922
1152.80886,0.06700
1151.31907,0.08758
1149.82928,0.11807
1148.33949,0.13847
1146.84970,0.13243
1145.35991,0.12642
1143.87013,0.12826
1142.38034,0.14070
1140.89055,0.15041
1139.40076,0.17279
1137.91097,0.16437
1136.42118,0.19853
1134.93140,0.21638
1133.44161,0.23426
1131.95182,0.24526
1130.46203,0.26111
1128.97224,0.25215
1127.48245,0.24528
1125.99266,0.22762
1124.50288,0.25208
1123.01309,0.24759
1121.52330,0.24311
1120.03351,0.26052
1118.54372,0.25931
1117.05393,0.25813
1115.56415,0.25675
1114.07436,0.23354
1112.58457,0.22265
1111.09478,0.21180
1109.60499,0.20177
1108.11520,0.22994
1106.62542,0.25446
1105.13563,0.26291
1103.64584,0.23572
1102.15605,0.23249
1100.66626,0.21927
1099.17647,0.20607
1097.68668,0.21119
1096.19690,0.21011
1094.70711,0.20010
1093.21732,0.18619
1091.72753,0.19715
1090.23774,0.19238
1088.74795,0.18764
1087.25817,0.17958
1085.76838,0.17776
1084.27859,0.17987
1082.78880,0.19926
1081.29901,0.20096
1079.80922,0.20774
1078.31943,0.19477
1076.82965,0.18182
1075.33986,0.20846
1073.85007,0.19901
1072.36028,0.22731
1070.87049,0.24413
1069.38070,0.27316
1067.89092,0.28370
1066.40113,0.29427
1064.91134,0.35374
1063.42155,0.41323
1061.93176,0.50449
1060.44197,0.57807
1058.95219,0.65788
1057.46240,0.70044
1055.97261,0.74304
1054.48282,0.81855
1052.99303,0.90857
1051.50324,0.87855
1050.01345,0.90813
1048.52367,0.93222
1047.03388,0.91503
1045.54409,0.89788
1044.05430,0.87304
1042.56451,0.83488
1041.07472,0.76478
1039.58494,0.69309
1038.09515,0.61522
1036.60536,0.59292
1035.11557,0.57064
1033.62578,0.51170
1032.13599,0.40724
1030.64620,0.36513
1029.15642,0.30856
1027.66663,0.28882
1026.17684,0.26910
1024.68705,0.24412
1023.19726,0.21065
1021.70747,0.17582
1020.21769,0.14286
1018.72790,0.13683
1017.23811,0.13612
1015.74832,0.13544
1014.25853,0.12741
1012.76874,0.12999
1011.27896,0.11834
1009.78917,0.08738
1008.29938,0.06703
1006.80959,0.06362
1005.31980,0.06022
1003.83001,0.02178
1002.34022,0.03741
1000.85044,0.04133
999.36065,0.02228
997.87086,0.03154
996.38107,0.04083
994.89128,0.04646
993.40149,0.06568
991.91171,0.06952
990.42192,0.07799
988.93213,0.09613
987.44234,0.10246
985.95255,0.10881
984.46276,0.09575
982.97297,0.08915
981.48319,0.08534
979.99340,0.05970
978.50361,0.05904
977.01382,0.05841
975.52403,0.03744
974.03424,0.03697
972.54446,0.02088
971.05467,0.01493
969.56488,0.01569
968.07509,0.01071
966.58530,0.00576
965.09551,0.02332
963.60573,0.03562
962.11594,0.03253
960.62615,0.03568
959.13636,0.03184
957.64657,0.02801
956.15678,0.00570
954.66699,0.02233
953.17721,0.03186
951.68742,0.04578
950.19763,0.05742
948.70784,0.06909
947.21805,0.08745
945.72826,0.08238
944.23848,0.10447
942.74869,0.12175
941.25890,0.13055
939.76911,0.13777
938.27932,0.14500
936.78953,0.17549
935.29974,0.19566
933.80996,0.21838
932.32017,0.22939
930.83038,0.24538
929.34059,0.26138
927.85080,0.28006
926.36101,0.27921
924.87123,0.29379
923.38144,0.30955
921.89165,0.35259
920.40186,0.39566
918.91207,0.50786
917.42228,0.64057
915.93250,0.76202
914.44271,0.93779
912.95292,1.05044
911.46313,1.16311
909.97334,1.40082
908.48355,1.58634
906.99376,1.76752
905.50398,1.91261
904.01419,1.95306
902.52440,1.99354
901.03461,2.00000
899.54482,1.99429
898.05503,1.89476
896.56525,1.67151
895.07546,1.53569
893.58567,1.39989
892.09588,1.11898
890.60609,0.87144
889.11630,0.67844
887.62651,0.48730
886.13673,0.42155
884.64694,0.35582
883.15715,0.26849
881.66736,0.18625
880.17757,0.13532
878.68778,0.11891
877.19800,0.10252
875.70821,0.06523
874.21842,0.05924
872.72863,0.03396
871.23884,0.03699
869.74905,0.03936
868.25927,0.04175
866.76948,0.03221
865.27969,0.02591
863.78990,0.03481
862.30011,0.04719
860.81032,0.05384
859.32053,0.06052
857.83075,0.07757
856.34096,0.08705
854.85117,0.08897
853.36138,0.10517
851.87159,0.10680
850.38180,0.10844
848.89202,0.12932
847.40223,0.15298
845.91244,0.17275
844.42265,0.17289
842.93286,0.17304
841.44307,0.19266
839.95329,0.20724
838.46350,0.22023
836.97371,0.23141
835.48392,0.22927
833.99413,0.22716
832.50434,0.22369
831.01455,0.21933
829.52477,0.17979
828.03498,0.16857
826.54519,0.15094
825.05540,0.13333
823.56561,0.12379
822.07582,0.14142
820.58604,0.11699
819.09625,0.11810
817.60646,0.11925
816.11667,0.10454
814.62688,0.10964
813.13709,0.11362
811.64730,0.09576
810.15752,0.10496
808.66773,0.11418
807.17794,0.11343
805.68815,0.11016
804.19836,0.10922
802.70857,0.11762
801.21879,0.12604
799.72900,0.11551
798.23921,0.10731
796.74942,0.08418
795.25963,0.09500
793.76984,0.10584
792.28006,0.12119
790.79027,0.11104
789.30048,0.14139
787.81069,0.18051
786.32090,0.18917
784.83111,0.19786
783.34132,0.22187
781.85154,0.23923
780.36175,0.27571
778.87196,0.29186
777.38217,0.30803
775.89238,0.34136
774.40259,0.33860
772.91281,0.36347
771.42302,0.33753
769.93323,0.31161
768.44344,0.27306
766.95365,0.21315
765.46386,0.20433
763.97407,0.16356
762.48429,0.15306
760.99450,0.14258
759.50471,0.11177
758.01492,0.09157
756.52513,0.08818
755.03534,0.08355
753.54556,0.07895
752.05577,0.05861
750.56598,0.05348
749.07619,0.06194
747.58640,0.05226
746.09661,0.04260
744.60683,0.03296
743.11704,0.03738
741.62725,0.01905
740.13746,0.01869
738.64767,0.01835
737.15788,0.01689
735.66809,0.01545
734.17831,0.01426
732.68852,0.02000
731.19873,0.02576
729.70894,0.01867
728.21915,0.02494
726.72936,0.00570
725.23958,0.01376
723.74979,0.01609
722.26000,0.01844
720.77021,0.01116
719.28042,0.01931
717.79063,0.02128
716.30084,0.01257
714.81106,0.00389
713.32127,0.03330
711.83148,0.01259
710.34169,0.02319
708.85190,0.02197
707.36211,0.02077
705.87233,0.02362
704.38254,0.03224
702.89275,0.04917
701.40296,0.05589
699.91317,0.06263
698.42338,0.06629
696.93360,0.08216
695.44381,0.08932
693.95402,0.08949
692.46423,0.08968
690.97444,0.11555
689.48465,0.13522
687.99486,0.15722
686.50508,0.16384
685.01529,0.17047
683.52550,0.18473
682.03571,0.21165
680.54592,0.23493
679.05613,0.24017
677.56635,0.24543
676.07656,0.27751
674.58677,0.22038
673.09698,0.19063
671.60719,0.18024
670.11740,0.16987
668.62761,0.16596
667.13783,0.17013
665.64804,0.14568
664.15825,0.12126
662.66846,0.09859
661.17867,0.07272
659.68888,0.05240
658.19910,0.03980
656.70931,0.02723
655.21952,0.03435
653.72973,0.04541
652.23994,0.05465
650.75015,0.04781
649.26037,0.04100
647.77058,0.02984
646.28079,0.03158
644.79100,0.02783
643.30121,0.02951
641.81142,0.03121
640.32163,0.01925
638.83185,0.02250
637.34206,0.01381
635.85227,0.00974
634.36248,0.00570
632.87269,0.01728
631.38290,0.01508
629.89312,0.02394
628.40333,0.02271
626.91354,0.02150
625.42375,0.02630
623.93396,0.00835
622.44417,0.01676
620.95438,0.02519
619.46460,0.03514
617.97481,0.03293
616.48502,0.05926
614.99523,0.07481
613.50544,0.09038
612.01565,0.12139
610.52587,0.16392
609.03608,0.18968
607.54629,0.20339
606.05650,0.21713
604.56671,0.27333
603.07692,0.28654
601.58714,0.29862
600.09735,0.31073
598.60756,0.36564
597.11777,0.38884
595.62798,0.39504
594.13819,0.37768
592.64840,0.36035
591.15862,0.30360
589.66883,0.28023
588.17904,0.25296
586.68925,0.23619
585.19946,0.21944
583.70967,0.15384
582.21989,0.11863
580.73010,0.10966
579.24031,0.10071
577.75052,0.06258
576.26073,0.03206
574.77094,0.03629
573.28115,0.02606
571.79137,0.01586
570.30158,0.01649
568.81179,0.04773
567.32200,0.05083
565.83221,0.05394
564.34242,0.09239
562.85264,0.11499
561.36285,0.10266
559.87306,0.12289
558.38327,0.14315
556.89348,0.12813
555.40369,0.14234
553.91391,0.14496
552.42412,0.14760
550.93433,0.16281
549.44454,0.17252
547.95475,0.17443
546.46496,0.17464
544.97517,0.17487
543.48539,0.18928
541.99560,0.21705
540.50581,0.24358
539.01602,0.27013
537.52623,0.30441
536.03644,0.34171
534.54666,0.37121
533.05687,0.38682
531.56708,0.40246
530.07729,0.47918
528.58750,0.53316
527.09771,0.56060
525.60792,0.58806
524.11814,0.62716
522.62835,0.68607
521.13856,0.75236
519.64877,0.78336
518.15898,0.81440
516.66919,0.87501
515.17941,0.84755
513.68962,0.84036
512.19983,0.83319
510.71004,0.81040
509.22025,0.79017
507.73046,0.67703
506.24068,0.63810
504.75089,0.59920
503.26110,0.49902
501.77131,0.37218
500.28152,0.32092
498.79173,0.26969
497.30194,0.23838
495.81216,0.20986
494.32237,0.19159
492.83258,0.17335
491.34279,0.08648
489.85300,0.06909
488.36321,0.04137
486.87343,0.04439
485.38364,0.04743
483.89385,0.07568
482.40406,0.08556
480.91427,0.10546
479.42448,0.12539
477.93469,0.13810
476.44491,0.13404
474.95512,0.15899
473.46533,0.18396
471.97554,0.19699
470.48575,0.16197
468.99596,0.16494
467.50618,0.16884
466.01639,0.17277
464.52660,0.13210
463.03681,0.10710
461.54702,0.09293
460.05723,0.07878
458.56745,0.08330
457.07766,0.05034
455.58787,0.05294
454.09808,0.05557
452.60829,0.01670
451.11850,0.01949
449.62871,0.01863
448.13893,0.01779
446.64914,0.00570
445.15935,0.01772
443.66956,0.03482
442.17977,0.04067
440.68998,0.04655
439.20020,0.04969
437.71041,0.04987
436.22062,0.03983
434.73083,0.02982
433.24104,0.03605
431.75125,0.04506
430.26146,0.04306
428.77168,0.04108
427.28189,0.04901
425.79210,0.02914
424.30231,0.03505
422.81252,0.04099
421.32273,0.04787
419.83295,0.02004
418.34316,0.02145
416.85337,0.02289
415.36358,0.03676
413.87379,0.04446
412.38400,0.04343
410.89422,0.04243
409.40443,0.04698
407.91464,0.04557
406.42485,0.03567
404.93506,0.04166
403.44527,0.04769
401.95548,0.03694
400.46570,0.02967
398.97591,0.02806
397.48612,0.02647
395.99633,0.02364
394.50654,0.04085
393.01675,0.03508
391.52697,0.02933
390.03718,0.04812
388.54739,0.05335
387.05760,0.05217
385.56781,0.05102
384.07802,0.03103
382.58824,0.02578
381.09845,0.01573
379.60866,0.00570
378.11887,0.02763
376.62908,0.03648
375.13929,0.02568
373.64950,0.01491
372.15972,0.05787
370.66993,0.04841
369.18014,0.03967
367.69035,0.03094
366.20056,0.04082
364.71077,0.06498
363.22099,0.05995
361.73120,0.05494
360.24141,0.02834
358.75162,0.03741
357.26183,0.03248
355.77204,0.02757
354.28225,0.03993
352.79247,0.07970
351.30268,0.08878
349.81289,0.09788
348.32310,0.09585
346.83331,0.09983
345.34352,0.07381
343.85374,0.04782
342.36395,0.03669
340.87416,0.01592
339.38437,0.01932
337.89458,0.02274
336.40479,0.02976
334.91501,0.01540
333.42522,0.02304
331.93543,0.03070
330.44564,0.00630
328.95585,0.06082
327.46606,0.06050
325.97627,0.06021
324.48649,0.04027
322.99670,0.02933
321.50691,0.03107
320.01712,0.03283
318.52733,0.05048
317.03754,0.05965
315.54776,0.07240
314.05797,0.08519
312.56818,0.10593
311.07839,0.13129
309.58860,0.11045
308.09881,0.08963
306.60902,0.05503
305.11924,0.05565
303.62945,0.03847
302.13966,0.02131
300.64987,0.00867
299.16008,0.00570
