1778.52000,0.01111
1777.03021,0.00259
1775.54042,0.00655
1774.05063,0.00540
1772.56085,0.00372
1771.07106,0.01698
1769.58127,0.01156
1768.09148,0.01240
1766.60169,0.00377
1765.11190,0.00466
1763.62212,0.00720
1762.13233,0.00299
1760.64254,0.00286
1759.15275,0.00954
1757.66296,0.01109
1756.17317,0.00562
1754.68339,0.00289
1753.19360,0.00533
1751.70381,0.01104
1750.21402,0.00920
1748.72423,0.00764
1747.23444,0.00720
1745.74465,0.00489
1744.25487,0.00259
1742.76508,0.00898
1741.27529,0.00482
1739.78550,0.00963
1738.29571,0.00606
1736.80592,0.00903
1735.31614,0.02123
1733.82635,0.01150
1732.33656,0.00505
1730.84677,0.00919
1729.35698,0.00740
1727.86719,0.00536
1726.37740,0.01554
1724.88762,0.00000
1723.39783,0.00376
1721.90804,0.00403
1720.41825,0.00567
1718.92846,0.01168
1717.43867,0.00985
1715.94889,0.00912
1714.45910,0.00490
1712.96931,0.01778
1711.47952,0.01117
1709.98973,0.01353
1708.49994,0.01564
1707.01016,0.00924
1705.52037,0.00286
1704.03058,0.00804
1702.54079,0.01920
1701.05100,0.01683
1699.56121,0.02316
1698.07142,0.01272
1696.58164,0.02018
1695.09185,0.02306
1693.60206,0.02489
1692.11227,0.03080
1690.62248,0.02481
1689.13269,0.04459
1687.64291,0.02700
1686.15312,0.04141
1684.66333,0.03742
1683.17354,0.03427
1681.68375,0.03357
1680.19396,0.04565
1678.70417,0.04175
1677.21439,0.04113
1675.72460,0.05274
1674.23481,0.05380
1672.74502,0.05407
1671.25523,0.06764
1669.76544,0.06958
1668.27566,0.07860
1666.78587,0.06921
1665.29608,0.08749
1663.80629,0.09089
1662.31650,0.08971
1660.82671,0.08936
1659.33693,0.09121
1657.84714,0.09253
1656.35735,0.09389
1654.86756,0.08009
1653.37777,0.06957
1651.88798,0.08752
1650.39819,0.08247
1648.90841,0.09452
1647.41862,0.09250
1645.92883,0.09104
1644.43904,0.08961
1642.94925,0.08061
1641.45946,0.08248
1639.96968,0.08736
1638.47989,0.09063
1636.99010,0.08418
1635.50031,0.09590
1634.01052,0.08326
1632.52073,0.08989
1631.03094,0.10033
1629.54116,0.08749
1628.05137,0.09473
1626.56158,0.07950
1625.07179,0.08002
1623.58200,0.06863
1622.09221,0.09088
1620.60243,0.09174
1619.11264,0.08530
1617.62285,0.08919
1616.13306,0.08172
1614.64327,0.08946
1613.15348,0.10426
1611.66370,0.10283
1610.17391,0.10007
1608.68412,0.09597
1607.19433,0.10058
1605.70454,0.09924
1604.21475,0.09468
1602.72496,0.09015
1601.23518,0.09187
1599.74539,0.09145
1598.25560,0.08752
1596.76581,0.08851
1595.27602,0.09900
1593.78623,0.10247
1592.29645,0.08157
1590.80666,0.07615
1589.31687,0.06967
1587.82708,0.08678
1586.33729,0.08387
1584.84750,0.09481
1583.35771,0.09032
1581.86793,0.07854
1580.37814,0.07193
1578.88835,0.07863
1577.39856,0.07614
1575.90877,0.07340
1574.41898,0.06283
1572.92920,0.05092
1571.43941,0.05313
1569.94962,0.05226
1568.45983,0.05140
1566.97004,0.04420
1565.48025,0.04841
1563.99047,0.04180
1562.50068,0.02953
1561.01089,0.03056
1559.52110,0.03514
1558.03131,0.04977
1556.54152,0.02296
1555.05173,0.01812
1553.56195,0.02849
1552.07216,0.03075
1550.58237,0.02599
1549.09258,0.01204
1547.60279,0.00788
1546.11300,0.01159
1544.62322,0.00286
1543.13343,0.01599
1541.64364,0.02833
1540.15385,0.02904
1538.66406,0.02977
1537.17427,0.03053
1535.68448,0.01938
1534.19470,0.00854
1532.70491,0.00286
1531.21512,0.01625
1529.72533,0.03238
1528.23554,0.02495
1526.74575,0.02866
1525.25597,0.03699
1523.76618,0.04861
1522.27639,0.05429
1520.78660,0.03533
1519.29681,0.05189
1517.80702,0.04681
1516.31724,0.04391
1514.82745,0.04293
1513.33766,0.05404
1511.84787,0.06518
1510.35808,0.05181
1508.86829,0.06313
1507.37850,0.06553
1505.88872,0.06227
1504.39893,0.06553
1502.90914,0.05689
1501.41935,0.06210
1499.92956,0.07221
1498.43977,0.07693
1496.94999,0.09766
1495.46020,0.11218
1493.97041,0.12917
1492.48062,0.12449
1490.99083,0.14668
1489.50104,0.15100
1488.01125,0.16077
1486.52147,0.17056
1485.03168,0.17387
1483.54189,0.20458
1482.05210,0.22827
1480.56231,0.24087
1479.07252,0.25024
1477.58274,0.26695
1476.09295,0.27095
1474.60316,0.27931
1473.11337,0.29610
1471.62358,0.30912
1470.13379,0.31430
1468.64401,0.33144
1467.15422,0.35429
1465.66443,0.37431
1464.17464,0.39437
1462.68485,0.44060
1461.19506,0.48929
1459.70527,0.52256
1458.21549,0.57537
1456.72570,0.61221
1455.23591,0.69569
1453.74612,0.75318
1452.25633,0.80961
1450.76654,0.84140
1449.27676,0.83392
1447.78697,0.82592
1446.29718,0.79193
1444.80739,0.77734
1443.31760,0.76278
1441.82781,0.71639
1440.33802,0.63833
1438.84824,0.60364
1437.35845,0.58633
1435.86866,0.57691
1434.37887,0.57943
1432.88908,0.60853
1431.39929,0.66639
1429.90951,0.70368
1428.41972,0.77324
1426.92993,0.91031
1425.44014,0.97314
1423.95035,1.01120
1422.46056,1.04929
1420.97078,1.06368
1419.48099,1.08515
1417.99120,1.11125
1416.50141,1.04767
1415.01162,0.99224
1413.52183,0.95690
1412.03204,0.91182
1410.54226,0.83614
1409.05247,0.74883
1407.56268,0.69190
1406.07289,0.59868
1404.58310,0.58394
1403.09331,0.56922
1401.60353,0.49694
1400.11374,0.41981
1398.62395,0.38742
1397.13416,0.33256
1395.64437,0.26769
1394.15458,0.26085
1392.66479,0.21772
1391.17501,0.17922
1389.68522,0.15375
1388.19543,0.11394
1386.70564,0.09232
1385.21585,0.07072
1383.72606,0.05673
1382.23628,0.04304
1380.74649,0.04184
1379.25670,0.02386
1377.76691,0.02298
1376.27712,0.00586
1374.78733,0.00286
1373.29755,0.00971
1371.80776,0.00899
1370.31797,0.02320
1368.82818,0.02361
1367.33839,0.02405
1365.84860,0.01990
1364.35881,0.04343
1362.86903,0.04584
1361.37924,0.06345
1359.88945,0.08244
1358.39966,0.11229
1356.90987,0.13513
1355.42008,0.19918
1353.93030,0.24266
1352.44051,0.28332
1350.95072,0.32400
1349.46093,0.41823
1347.97114,0.48756
1346.48135,0.55853
1344.99156,0.64796
1343.50178,0.72224
1342.01199,0.76781
1340.52220,0.78821
1339.03241,0.83654
1337.54262,0.91254
1336.05283,0.94128
1334.56305,0.97003
1333.07326,0.99380
1331.58347,1.01922
1330.09368,0.98884
1328.60389,0.93192
1327.11410,0.92109
1325.62432,0.94038
1324.13453,0.92961
1322.64474,0.85246
1321.15495,0.78916
1319.66516,0.76341
1318.17537,0.73770
1316.68558,0.69236
1315.19580,0.65084
1313.70601,0.61964
1312.21622,0.57030
1310.72643,0.52804
1309.23664,0.52619
1307.74685,0.48831
1306.25707,0.43258
1304.76728,0.39936
1303.27749,0.36616
1301.78770,0.32378
1300.29791,0.30689
1298.80812,0.24803
1297.31834,0.19081
1295.82855,0.18132
1294.33876,0.14637
1292.84897,0.11687
1291.35918,0.10772
1289.86939,0.10510
1288.37960,0.10251
1286.88982,0.10807
1285.40003,0.12531
1283.91024,0.11059
1282.42045,0.09536
1280.93066,0.07662
1279.44087,0.05819
1277.95109,0.05820
1276.46130,0.04442
1274.97151,0.03920
1273.48172,0.03401
1271.99193,0.04713
1270.50214,0.04836
1269.01235,0.04419
1267.52257,0.03326
1266.03278,0.02670
1264.54299,0.02585
1263.05320,0.02557
1261.56341,0.02464
1260.07362,0.02373
1258.58384,0.03383
1257.09405,0.01738
1255.60426,0.00286
1254.11447,0.02000
1252.62468,0.03907
1251.13489,0.01696
1249.64511,0.02658
1248.15532,0.02946
1246.66553,0.03304
1245.17574,0.03664
1243.68595,0.02549
1242.19616,0.02494
1240.70637,0.02225
1239.21659,0.02690
1237.72680,0.01558
1236.23701,0.02190
1234.74722,0.01091
1233.25743,0.00739
1231.76764,0.00389
1230.27786,0.00815
1228.78807,0.00402
1227.29828,0.00616
1225.80849,0.01943
1224.31870,0.01755
1222.82891,0.02003
1221.33912,0.02524
1219.84934,0.03509
1218.35955,0.04496
1216.86976,0.03697
1215.37997,0.05610
1213.89018,0.07039
1212.40039,0.05732
1210.91061,0.07029
1209.42082,0.06649
1207.93103,0.06149
1206.44124,0.05652
1204.95145,0.04791
1203.46166,0.04963
1201.97188,0.05597
1200.48209,0.05611
1198.99230,0.06088
1197.50251,0.05673
1196.01272,0.04909
1194.52293,0.04892
1193.03314,0.04877
1191.54336,0.03524
1190.05357,0.02525
1188.56378,0.02125
1187.07399,0.01077
1185.58420,0.02579
1184.09441,0.03595
1182.60463,0.03178
1181.11484,0.02763
1179.62505,0.01077
1178.13526,0.00613
1176.64547,0.00286
1175.15568,0.00557
1173.66589,0.01236
1172.17611,0.01972
1170.68632,0.01695
1169.19653,0.01420
1167.70674,0.02082
1166.21695,0.02475
1164.72716,0.04931
1163.23738,0.04544
1161.74759,0.04891
1160.25780,0.08330
1158.76801,0.08180
1157.27822,0.08033
1155.78843,0.09744
1154.29865,0.10266
1152.80886,0.09571
1151.31907,0.12374
1149.82928,0.13689
1148.33949,0.14112
1146.84970,0.13820
1145.35991,0.13530
1143.87013,0.13012
1142.38034,0.14529
1140.89055,0.18487
1139.40076,0.19250
1137.91097,0.20368
1136.42118,0.21055
1134.93140,0.22788
1133.44161,0.24523
1131.95182,0.26464
1130.46203,0.27269
1128.97224,0.28266
1127.48245,0.24983
1125.99266,0.25769
1124.50288,0.28291
1123.01309,0.29284
1121.52330,0.30280
1120.03351,0.29856
1118.54372,0.26317
1117.05393,0.28364
1115.56415,0.28028
1114.07436,0.25147
1112.58457,0.25318
1111.09478,0.25491
1109.60499,0.25165
1108.11520,0.26495
1106.62542,0.28992
1105.13563,0.25286
1103.64584,0.24997
1102.15605,0.24792
1100.66626,0.25172
1099.17647,0.25554
1097.68668,0.23947
1096.19690,0.23453
1094.70711,0.22664
1093.21732,0.20333
1091.72753,0.22204
1090.23774,0.22764
1088.74795,0.23326
1087.25817,0.23064
1085.76838,0.21260
1084.27859,0.22873
1082.78880,0.20152
1081.29901,0.23450
1079.80922,0.22198
1078.31943,0.22737
1076.82965,0.23278
1075.33986,0.24174
1073.85007,0.24693
1072.36028,0.26136
1070.87049,0.28042
1069.38070,0.32471
1067.89092,0.35195
1066.40113,0.37922
1064.91134,0.40841
1063.42155,0.50239
1061.93176,0.58719
1060.44197,0.70155
1058.95219,0.78449
1057.46240,0.82952
1055.97261,0.87458
1054.48282,0.95922
1052.99303,1.02655
1051.50324,1.03645
1050.01345,1.01818
1048.52367,1.01512
1047.03388,0.99121
1045.54409,0.96733
1044.05430,0.93371
1042.56451,0.91232
1041.07472,0.82428
1039.58494,0.75252
1038.09515,0.66318
1036.60536,0.61681
1035.11557,0.57047
1033.62578,0.50857
1032.13599,0.44453
1030.64620,0.38457
1029.15642,0.32139
1027.66663,0.30621
1026.17684,0.29105
1024.68705,0.24935
1023.19726,0.19900
1021.70747,0.19611
1020.21769,0.16479
1018.72790,0.15679
1017.23811,0.15926
1015.74832,0.16175
1014.25853,0.14679
1012.76874,0.13591
1011.27896,0.11991
1009.78917,0.11261
1008.29938,0.08690
1006.80959,0.07572
1005.31980,0.06456
1003.83001,0.03893
1002.34022,0.04720
1000.85044,0.02947
999.36065,0.03372
997.87086,0.04450
996.38107,0.05531
994.89128,0.08592
993.40149,0.09705
991.91171,0.10712
990.42192,0.11314
988.93213,0.15144
987.44234,0.15657
985.95255,0.16172
984.46276,0.15456
982.97297,0.12629
981.48319,0.13355
979.99340,0.07796
978.50361,0.07253
977.01382,0.06712
975.52403,0.06662
974.03424,0.03877
972.54446,0.01853
971.05467,0.03138
969.56488,0.00414
968.07509,0.01419
966.58530,0.02427
965.09551,0.00334
963.60573,0.02795
962.11594,0.02657
960.62615,0.03064
959.13636,0.02646
957.64657,0.02231
956.15678,0.00286
954.66699,0.02588
953.17721,0.01369
951.68742,0.04136
950.19763,0.04752
948.70784,0.05369
947.21805,0.07683
945.72826,0.09051
944.23848,0.07657
942.74869,0.09084
941.25890,0.09999
939.76911,0.11173
938.27932,0.12350
936.78953,0.15332
935.29974,0.15714
933.80996,0.21709
932.32017,0.21988
930.83038,0.23556
929.34059,0.25127
927.85080,0.26010
926.36101,0.27871
924.87123,0.31224
923.38144,0.35177
921.89165,0.39836
920.40186,0.44498
918.91207,0.57022
917.42228,0.69927
915.93250,0.83459
914.44271,1.02684
912.95292,1.13944
911.46313,1.25206
909.97334,1.48206
908.48355,1.65300
906.99376,1.84213
905.50398,1.93100
904.01419,1.95445
902.52440,1.97792
901.03461,1.99586
899.54482,2.00000
898.05503,1.84589
896.56525,1.59696
895.07546,1.46607
893.58567,1.33521
892.09588,1.10125
890.60609,0.86109
889.11630,0.65320
887.62651,0.47785
886.13673,0.40538
884.64694,0.33294
883.15715,0.26662
881.66736,0.17322
880.17757,0.13134
878.68778,0.11347
877.19800,0.09562
875.70821,0.06465
874.21842,0.01718
872.72863,0.01932
871.23884,0.03884
869.74905,0.02572
868.25927,0.01263
866.76948,0.00702
865.27969,0.03612
863.78990,0.02405
862.30011,0.03639
860.81032,0.04646
859.32053,0.05655
857.83075,0.07493
856.34096,0.07735
854.85117,0.09415
853.36138,0.12535
851.87159,0.12554
850.38180,0.12575
848.89202,0.16189
847.40223,0.19183
845.91244,0.20553
844.42265,0.20178
842.93286,0.19804
841.44307,0.20504
839.95329,0.24540
838.46350,0.24513
836.97371,0.25356
835.48392,0.26337
833.99413,0.27320
832.50434,0.26490
831.01455,0.25689
829.52477,0.25298
828.03498,0.19895
826.54519,0.18709
825.05540,0.17525
823.56561,0.16574
822.07582,0.14433
820.58604,0.15493
819.09625,0.14888
817.60646,0.14286
816.11667,0.14919
814.62688,0.13983
813.13709,0.12453
811.64730,0.11603
810.15752,0.11650
808.66773,0.11700
807.17794,0.12944
805.68815,0.13649
804.19836,0.13705
802.70857,0.13927
801.21879,0.14151
799.72900,0.14405
798.23921,0.13930
796.74942,0.12346
795.25963,0.13447
793.76984,0.14551
792.28006,0.15007
790.79027,0.14652
789.30048,0.16441
787.81069,0.21593
786.32090,0.22533
784.83111,0.23475
783.34132,0.29258
781.85154,0.29460
780.36175,0.33052
778.87196,0.35034
777.38217,0.37019
775.89238,0.40347
774.40259,0.41944
772.91281,0.43461
771.42302,0.41594
769.93323,0.39729
768.44344,0.33720
766.95365,0.30179
765.46386,0.27915
763.97407,0.22455
762.48429,0.20860
760.99450,0.19267
759.50471,0.14004
758.01492,0.12294
756.52513,0.10207
755.03534,0.10738
753.54556,0.11272
752.05577,0.07404
750.56598,0.05977
749.07619,0.07019
747.58640,0.06614
746.09661,0.06211
744.60683,0.04740
743.11704,0.03976
741.62725,0.02483
740.13746,0.01873
738.64767,0.01266
737.15788,0.02869
735.66809,0.01874
734.17831,0.00800
732.68852,0.01516
731.19873,0.02236
729.70894,0.00952
728.21915,0.03086
726.72936,0.00696
725.23958,0.00286
723.74979,0.01051
722.26000,0.01819
720.77021,0.03185
719.28042,0.00163
717.79063,0.01805
716.30084,0.02298
714.81106,0.02793
713.32127,0.01462
711.83148,0.02518
710.34169,0.02465
708.85190,0.03119
707.36211,0.03776
705.87233,0.03947
704.38254,0.03877
702.89275,0.05273
701.40296,0.05641
699.91317,0.06012
698.42338,0.07632
696.93360,0.07845
695.44381,0.10473
693.95402,0.10922
692.46423,0.11373
690.97444,0.12869
689.48465,0.13393
687.99486,0.17469
686.50508,0.18133
685.01529,0.18800
683.52550,0.22396
682.03571,0.24043
680.54592,0.26668
679.05613,0.27575
677.56635,0.28484
676.07656,0.27539
674.58677,0.27003
673.09698,0.21808
671.60719,0.21413
670.11740,0.21020
668.62761,0.20331
667.13783,0.17775
665.64804,0.16319
664.15825,0.14866
662.66846,0.11992
661.17867,0.09825
659.68888,0.06413
658.19910,0.05864
656.70931,0.05317
655.21952,0.03214
653.72973,0.06344
652.23994,0.06062
650.75015,0.06135
649.26037,0.06210
647.77058,0.04526
646.28079,0.06611
644.79100,0.04526
643.30121,0.04082
641.81142,0.03641
640.32163,0.04381
638.83185,0.02116
637.34206,0.00286
635.85227,0.01156
634.36248,0.02028
632.87269,0.01465
631.38290,0.01854
629.89312,0.00430
628.40333,0.01799
626.91354,0.03171
625.42375,0.01917
623.93396,0.00557
622.44417,0.01665
620.95438,0.02776
619.46460,0.02940
617.97481,0.02023
616.48502,0.05418
614.99523,0.07270
613.50544,0.09125
612.01565,0.12798
610.52587,0.16691
609.03608,0.20613
607.54629,0.21041
606.05650,0.21471
604.56671,0.26214
603.07692,0.31094
601.58714,0.32914
600.09735,0.34737
598.60756,0.40790
597.11777,0.41073
595.62798,0.42470
594.13819,0.40860
592.64840,0.39253
591.15862,0.33286
589.66883,0.32280
588.17904,0.26480
586.68925,0.25492
585.19946,0.24508
583.70967,0.17007
582.21989,0.11542
580.73010,0.10429
579.24031,0.09319
577.75052,0.08468
576.26073,0.05344
574.77094,0.03631
573.28115,0.02923
571.79137,0.02218
570.30158,0.02491
568.81179,0.05233
567.32200,0.07164
565.83221,0.09097
564.34242,0.10329
562.85264,0.12457
561.36285,0.13693
559.87306,0.15609
558.38327,0.17528
556.89348,0.17715
555.40369,0.16982
553.91391,0.17553
552.42412,0.18127
550.93433,0.20085
549.44454,0.21612
547.95475,0.21325
546.46496,0.20974
544.97517,0.20624
543.48539,0.21375
541.99560,0.24893
540.50581,0.28711
539.01602,0.32532
537.52623,0.32480
536.03644,0.36847
534.54666,0.40594
533.05687,0.41430
531.56708,0.42268
530.07729,0.47025
528.58750,0.52164
527.09771,0.54920
525.60792,0.57679
524.11814,0.63177
522.62835,0.69518
521.13856,0.77569
519.64877,0.80189
518.15898,0.82811
516.66919,0.82847
515.17941,0.82452
513.68962,0.81342
512.19983,0.80233
510.71004,0.83207
509.22025,0.77510
507.73046,0.67669
506.24068,0.61651
504.75089,0.55636
503.26110,0.48377
501.77131,0.37408
500.28152,0.32335
498.79173,0.27265
497.30194,0.20640
495.81216,0.20602
494.32237,0.18046
492.83258,0.15493
491.34279,0.08985
489.85300,0.07115
488.36321,0.03945
486.87343,0.04221
485.38364,0.04498
483.89385,0.06486
482.40406,0.09993
480.91427,0.11105
479.42448,0.12219
477.93469,0.13756
476.44491,0.15484
474.95512,0.17487
473.46533,0.19491
471.97554,0.20740
470.48575,0.19145
468.99596,0.20019
467.50618,0.19987
466.01639,0.19958
464.52660,0.13549
463.03681,0.13565
461.54702,0.12527
460.05723,0.11491
458.56745,0.08724
457.07766,0.03438
455.58787,0.04876
454.09808,0.06316
452.60829,0.02881
451.11850,0.01183
449.62871,0.00733
448.13893,0.00286
446.64914,0.01285
445.15935,0.01473
443.66956,0.03452
442.17977,0.04526
440.68998,0.05603
439.20020,0.05502
437.71041,0.06055
436.22062,0.06095
434.73083,0.06138
433.24104,0.05668
431.75125,0.05580
430.26146,0.05671
428.77168,0.05764
427.28189,0.05196
425.79210,0.02706
424.30231,0.02576
422.81252,0.02449
421.32273,0.07636
419.83295,0.06212
418.34316,0.05008
416.85337,0.03807
415.36358,0.04857
413.87379,0.05883
412.38400,0.05326
410.89422,0.04771
409.40443,0.07105
407.91464,0.05701
406.42485,0.04978
404.93506,0.05191
403.44527,0.05408
401.95548,0.04935
400.46570,0.02406
398.97591,0.02602
397.48612,0.02801
395.99633,0.02949
394.50654,0.03342
393.01675,0.03129
391.52697,0.02917
390.03718,0.02804
388.54739,0.02258
387.05760,0.02786
385.56781,0.03317
384.07802,0.02291
382.58824,0.01946
381.09845,0.01115
379.60866,0.00286
378.11887,0.00973
376.62908,0.00307
375.13929,0.02476
373.64950,0.04647
372.15972,0.03257
370.66993,0.03549
369.18014,0.03826
367.69035,0.04105
366.20056,0.03357
364.71077,0.03722
363.22099,0.03196
361.73120,0.02672
360.24141,0.03993
358.75162,0.04070
357.26183,0.02876
355.77204,0.01685
354.28225,0.03395
352.79247,0.05867
351.30268,0.06919
349.81289,0.07973
348.32310,0.10533
346.83331,0.10820
345.34352,0.08575
343.85374,0.06332
342.36395,0.02805
340.87416,0.02125
339.38437,0.01205
337.89458,0.00286
336.40479,0.01479
334.91501,0.03163
333.42522,0.02586
331.93543,0.02011
330.44564,0.03241
328.95585,0.04067
327.46606,0.03053
325.97627,0.02040
324.48649,0.02847
322.99670,0.02246
321.50691,0.03708
320.01712,0.05172
318.52733,0.02600
317.03754,0.06915
315.54776,0.07383
314.05797,0.07855
312.56818,0.12122
311.07839,0.11298
309.58860,0.09892
308.09881,0.08490
306.60902,0.06751
305.11924,0.04716
303.62945,0.04026
302.13966,0.03338
300.64987,0.00308
299.16008,0.00286
