1778.52000,0.01152
1777.03021,0.01117
1775.54042,0.01487
1774.05063,0.01350
1772.56085,0.01751
1771.07106,0.01324
1769.58127,0.01569
1768.09148,0.02245
1766.60169,0.01209
1765.11190,0.01569
1763.62212,0.01261
1762.13233,0.01598
1760.64254,0.01215
1759.15275,0.00995
1757.66296,0.01313
1756.17317,0.01419
1754.68339,0.01447
1753.19360,0.00835
1751.70381,0.01350
1750.21402,0.00448
1748.72423,0.01209
1747.23444,0.01757
1745.74465,0.02336
1744.25487,0.02006
1742.76508,0.01785
1741.27529,0.01861
1739.78550,0.01833
1738.29571,0.00950
1736.80592,0.01007
1735.31614,0.01982
1733.82635,0.02289
1732.33656,0.01528
1730.84677,0.01250
1729.35698,0.00520
1727.86719,0.01828
1726.37740,0.01505
1724.88762,0.01961
1723.39783,0.01347
1721.90804,0.01594
1720.41825,0.01574
1718.92846,0.00995
1717.43867,0.02495
1715.94889,0.01613
1714.45910,0.02046
1712.96931,0.01330
1711.47952,0.01500
1709.98973,0.01779
1708.49994,0.01284
1707.01016,0.01569
1705.52037,0.01855
1704.03058,0.00939
1702.54079,0.01151
1701.05100,0.01900
1699.56121,0.01312
1698.07142,0.00995
1696.58164,0.01235
1695.09185,0.01531
1693.60206,0.01642
1692.11227,0.03496
1690.62248,0.02487
1689.13269,0.01855
1687.64291,0.03046
1686.15312,0.03464
1684.66333,0.02598
1683.17354,0.03770
1681.68375,0.02615
1680.19396,0.03470
1678.70417,0.04248
1677.21439,0.05055
1675.72460,0.03828
1674.23481,0.04024
1672.74502,0.05025
1671.25523,0.05467
1669.76544,0.05884
1668.27566,0.06919
1666.78587,0.07448
1665.29608,0.07658
1663.80629,0.05701
1662.31650,0.06800
1660.82671,0.06910
1659.33693,0.08308
1657.84714,0.07646
1656.35735,0.07978
1654.86756,0.07348
1653.37777,0.08353
1651.88798,0.08746
1650.39819,0.06676
1648.90841,0.08520
1647.41862,0.07420
1645.92883,0.07982
1644.43904,0.08547
1642.94925,0.07106
1641.45946,0.07354
1639.96968,0.08168
1638.47989,0.08715
1636.99010,0.08542
1635.50031,0.08211
1634.01052,0.08579
1632.52073,0.08038
1631.03094,0.08812
1629.54116,0.08062
1628.05137,0.10153
1626.56158,0.09756
1625.07179,0.09040
1623.58200,0.08835
1622.09221,0.07749
1620.60243,0.09397
1619.11264,0.10137
1617.62285,0.08549
1616.13306,0.09025
1614.64327,0.08246
1613.15348,0.09557
1611.66370,0.08756
1610.17391,0.08626
1608.68412,0.08820
1607.19433,0.09499
1605.70454,0.08787
1604.21475,0.08359
1602.72496,0.07933
1601.23518,0.09559
1599.74539,0.09017
1598.25560,0.09871
1596.76581,0.08585
1595.27602,0.08345
1593.78623,0.07760
1592.29645,0.08462
1590.80666,0.08364
1589.31687,0.08214
1587.82708,0.07719
1586.33729,0.08324
1584.84750,0.07806
1583.35771,0.06970
1581.86793,0.07127
1580.37814,0.08599
1578.88835,0.07475
1577.39856,0.06380
1575.90877,0.05690
1574.41898,0.05564
1572.92920,0.04477
1571.43941,0.03740
1569.94962,0.04090
1568.45983,0.04443
1566.97004,0.04142
1565.48025,0.05450
1563.99047,0.03467
1562.50068,0.03199
1561.01089,0.01756
1559.52110,0.02190
1558.03131,0.01930
1556.54152,0.02851
1555.05173,0.02810
1553.56195,0.03254
1552.07216,0.02629
1550.58237,0.01685
1549.09258,0.02725
1547.60279,0.01758
1546.11300,0.00661
1544.62322,0.01923
1543.13343,0.01446
1541.64364,0.01240
1540.15385,0.01116
1538.66406,0.00995
1537.17427,0.01949
1535.68448,0.02397
1534.19470,0.01159
1532.70491,0.02126
1531.21512,0.04408
1529.72533,0.03586
1528.23554,0.02739
1526.74575,0.03581
1525.25597,0.03730
1523.76618,0.03185
1522.27639,0.05454
1520.78660,0.03655
1519.29681,0.04403
1517.80702,0.05046
1516.31724,0.04593
1514.82745,0.04518
1513.33766,0.04779
1511.84787,0.05044
1510.35808,0.06100
1508.86829,0.06382
1507.37850,0.05087
1505.88872,0.05856
1504.39893,0.05503
1502.90914,0.05634
1501.41935,0.05206
1499.92956,0.06466
1498.43977,0.07569
1496.94999,0.08460
1495.46020,0.09567
1493.97041,0.09900
1492.48062,0.12378
1490.99083,0.12556
1489.50104,0.15038
1488.01125,0.14979
1486.52147,0.14923
1485.03168,0.16717
1483.54189,0.17549
1482.05210,0.19883
1480.56231,0.23210
1479.07252,0.24344
1477.58274,0.26177
1476.09295,0.25494
1474.60316,0.25885
1473.11337,0.27377
1471.62358,0.27826
1470.13379,0.27769
1468.64401,0.30821
1467.15422,0.33046
1465.66443,0.33371
1464.17464,0.33698
1462.68485,0.37483
1461.19506,0.42047
1459.70527,0.44551
1458.21549,0.50218
1456.72570,0.55164
1455.23591,0.59416
1453.74612,0.67527
1452.25633,0.72346
1450.76654,0.75347
1449.27676,0.75940
1447.78697,0.74071
1446.29718,0.69231
1444.80739,0.68157
1443.31760,0.67086
1441.82781,0.64048
1440.33802,0.58442
1438.84824,0.53561
1437.35845,0.50316
1435.86866,0.49029
1434.37887,0.53529
1432.88908,0.54094
1431.39929,0.62054
1429.90951,0.67980
1428.41972,0.72356
1426.92993,0.81421
1425.44014,0.83445
1423.95035,0.85899
1422.46056,0.88356
1420.97078,0.96815
1419.48099,0.98339
1417.99120,0.97295
1416.50141,0.92102
1415.01162,0.88331
1413.52183,0.84187
1412.03204,0.80689
1410.54226,0.77112
1409.05247,0.71583
1407.56268,0.66806
1406.07289,0.59086
1404.58310,0.54072
1403.09331,0.49062
1401.60353,0.44803
1400.11374,0.39690
1398.62395,0.34553
1397.13416,0.31212
1395.64437,0.26187
1394.15458,0.21940
1392.66479,0.17428
1391.17501,0.14660
1389.68522,0.13045
1388.19543,0.09692
1386.70564,0.08524
1385.21585,0.07359
1383.72606,0.04950
1382.23628,0.04499
1380.74649,0.04158
1379.25670,0.03605
1377.76691,0.04366
1376.27712,0.02961
1374.78733,0.00995
1373.29755,0.01296
1371.80776,0.03126
1370.31797,0.01986
1368.82818,0.02134
1367.33839,0.02284
1365.84860,0.03883
1364.35881,0.03824
1362.86903,0.02910
1361.37924,0.06283
1359.88945,0.07811
1358.39966,0.10226
1356.90987,0.12294
1355.42008,0.17820
1353.93030,0.22036
1352.44051,0.24968
1350.95072,0.27903
1349.46093,0.36010
1347.97114,0.45779
1346.48135,0.50998
1344.99156,0.58549
1343.50178,0.64442
1342.01199,0.73417
1340.52220,0.77467
1339.03241,0.80207
1337.54262,0.87529
1336.05283,0.88640
1334.56305,0.89754
1333.07326,0.92022
1331.58347,0.92095
1330.09368,0.91181
1328.60389,0.88287
1327.11410,0.87323
1325.62432,0.84300
1324.13453,0.80020
1322.64474,0.77752
1321.15495,0.72165
1319.66516,0.70758
1318.17537,0.69354
1316.68558,0.64095
1315.19580,0.57500
1313.70601,0.51630
1312.21622,0.48468
1310.72643,0.44880
1309.23664,0.44936
1307.74685,0.41325
1306.25707,0.37932
1304.76728,0.36214
1303.27749,0.34499
1301.78770,0.28943
1300.29791,0.27996
1298.80812,0.23329
1297.31834,0.19280
1295.82855,0.17055
1294.33876,0.14028
1292.84897,0.12611
1291.35918,0.10500
1289.86939,0.10374
1288.37960,0.10249
1286.88982,0.09618
1285.40003,0.09793
1283.91024,0.10212
1282.42045,0.06991
1280.93066,0.06851
1279.44087,0.05670
1277.95109,0.07089
1276.46130,0.04199
1274.97151,0.04417
1273.48172,0.04638
1271.99193,0.02934
1270.50214,0.03856
1269.01235,0.04459
1267.52257,0.04556
1266.03278,0.04842
1264.54299,0.04006
1263.05320,0.03227
1261.56341,0.03467
1260.07362,0.03710
1258.58384,0.02321
1257.09405,0.03479
1255.60426,0.02390
1254.11447,0.01169
1252.62468,0.00995
1251.13489,0.02279
1249.64511,0.01879
1248.15532,0.03355
1246.66553,0.03535
1245.17574,0.03717
1243.68595,0.02389
1242.19616,0.02831
1240.70637,0.02953
1239.21659,0.04069
1237.72680,0.02590
1236.23701,0.01541
1234.74722,0.01834
1233.25743,0.03040
1231.76764,0.04248
1230.27786,0.03611
1228.78807,0.01824
1227.29828,0.03013
1225.80849,0.03079
1224.31870,0.01434
1222.82891,0.02710
1221.33912,0.03721
1219.84934,0.04118
1218.35955,0.04518
1216.86976,0.05991
1215.37997,0.07012
1213.89018,0.07553
1212.40039,0.05498
1210.91061,0.06767
1209.42082,0.07609
1207.93103,0.07383
1206.44124,0.07159
1204.95145,0.06911
1203.46166,0.09745
1201.97188,0.06662
1200.48209,0.06475
1198.99230,0.04924
1197.50251,0.05812
1196.01272,0.04748
1194.52293,0.04530
1193.03314,0.04315
1191.54336,0.05293
1190.05357,0.03141
1188.56378,0.03160
1187.07399,0.01869
1185.58420,0.02161
1184.09441,0.01544
1182.60463,0.02336
1181.11484,0.03131
1179.62505,0.00995
1178.13526,0.01363
1176.64547,0.02215
1175.15568,0.02427
1173.66589,0.02186
1172.17611,0.02483
1170.68632,0.01738
1169.19653,0.00995
1167.70674,0.02681
1166.21695,0.01797
1164.72716,0.02175
1163.23738,0.04591
1161.74759,0.05269
1160.25780,0.08734
1158.76801,0.08934
1157.27822,0.09136
1155.78843,0.10118
1154.29865,0.10834
1152.80886,0.11017
1151.31907,0.10988
1149.82928,0.13827
1148.33949,0.13857
1146.84970,0.14585
1145.35991,0.15315
1143.87013,0.14977
1142.38034,0.15766
1140.89055,0.15299
1139.40076,0.15102
1137.91097,0.17906
1136.42118,0.20499
1134.93140,0.21019
1133.44161,0.21541
1131.95182,0.21410
1130.46203,0.24253
1128.97224,0.24876
1127.48245,0.22690
1125.99266,0.25165
1124.50288,0.24189
1123.01309,0.23656
1121.52330,0.23127
1120.03351,0.25210
1118.54372,0.22154
1117.05393,0.23627
1115.56415,0.23923
1114.07436,0.25213
1112.58457,0.24162
1111.09478,0.23113
1109.60499,0.24678
1108.11520,0.22737
1106.62542,0.23209
1105.13563,0.22183
1103.64584,0.23623
1102.15605,0.21183
1100.66626,0.20968
1099.17647,0.20755
1097.68668,0.20545
1096.19690,0.21033
1094.70711,0.22997
1093.21732,0.20410
1091.72753,0.20103
1090.23774,0.19476
1088.74795,0.18851
1087.25817,0.16060
1085.76838,0.17931
1084.27859,0.16725
1082.78880,0.18895
1081.29901,0.21122
1079.80922,0.21503
1078.31943,0.22060
1076.82965,0.22620
1075.33986,0.24052
1073.85007,0.22863
1072.36028,0.23765
1070.87049,0.25338
1069.38070,0.25120
1067.89092,0.27435
1066.40113,0.29752
1064.91134,0.39290
1063.42155,0.47330
1061.93176,0.55399
1060.44197,0.67060
1058.95219,0.74947
1057.46240,0.79475
1055.97261,0.84005
1054.48282,0.91256
1052.99303,0.94921
1051.50324,0.98320
1050.01345,1.03596
1048.52367,1.03090
1047.03388,0.99654
1045.54409,0.96220
1044.05430,0.87473
1042.56451,0.80602
1041.07472,0.75475
1039.58494,0.67351
1038.09515,0.60166
1036.60536,0.57135
1035.11557,0.54106
1033.62578,0.47196
1032.13599,0.39111
1030.64620,0.34670
1029.15642,0.28062
1027.66663,0.26130
1026.17684,0.24200
1024.68705,0.21537
1023.19726,0.18232
1021.70747,0.17850
1020.21769,0.15461
1018.72790,0.12566
1017.23811,0.11936
1015.74832,0.11309
1014.25853,0.10537
1012.76874,0.10678
1011.27896,0.11731
1009.78917,0.08636
1008.29938,0.06695
1006.80959,0.06565
1005.31980,0.06436
1003.83001,0.04235
1002.34022,0.05115
1000.85044,0.04740
999.36065,0.05893
997.87086,0.06620
996.38107,0.07350
994.89128,0.08457
993.40149,0.10262
991.91171,0.11214
990.42192,0.12676
988.93213,0.15908
987.44234,0.15206
985.95255,0.14506
984.46276,0.14639
982.97297,0.12953
981.48319,0.12796
979.99340,0.10258
978.50361,0.08847
977.01382,0.07439
975.52403,0.04988
974.03424,0.04656
972.54446,0.03361
971.05467,0.02953
969.56488,0.02441
968.07509,0.02654
966.58530,0.02869
965.09551,0.01854
963.60573,0.01592
962.11594,0.01172
960.62615,0.00995
959.13636,0.01344
957.64657,0.01696
956.15678,0.03242
954.66699,0.03906
953.17721,0.04680
951.68742,0.04118
950.19763,0.04227
948.70784,0.04339
947.21805,0.07800
945.72826,0.08533
944.23848,0.09803
942.74869,0.11987
941.25890,0.13101
939.76911,0.14125
938.27932,0.15150
936.78953,0.15522
935.29974,0.18200
933.80996,0.18309
932.32017,0.21071
930.83038,0.22430
929.34059,0.23792
927.85080,0.28142
926.36101,0.26656
924.87123,0.33368
923.38144,0.39439
921.89165,0.42620
920.40186,0.45804
918.91207,0.54292
917.42228,0.65355
915.93250,0.84400
914.44271,0.97262
912.95292,1.08010
911.46313,1.18760
909.97334,1.39744
908.48355,1.62123
906.99376,1.84263
905.50398,1.91702
904.01419,1.94965
902.52440,1.98231
901.03461,2.00000
899.54482,1.95183
898.05503,1.78343
896.56525,1.56711
895.07546,1.46237
893.58567,1.35765
892.09588,1.11944
890.60609,0.86680
889.11630,0.65944
887.62651,0.48666
886.13673,0.42504
884.64694,0.36345
883.15715,0.28180
881.66736,0.21356
880.17757,0.17266
878.68778,0.14531
877.19800,0.11799
875.70821,0.09430
874.21842,0.08403
872.72863,0.06950
871.23884,0.06597
869.74905,0.06301
868.25927,0.06006
866.76948,0.06009
865.27969,0.03871
863.78990,0.08057
862.30011,0.08254
860.81032,0.08789
859.32053,0.09326
857.83075,0.09905
856.34096,0.12201
854.85117,0.13937
853.36138,0.15889
851.87159,0.15755
850.38180,0.15624
848.89202,0.21387
847.40223,0.22304
845.91244,0.23251
844.42265,0.24388
842.93286,0.25527
841.44307,0.25999
839.95329,0.29098
838.46350,0.30512
836.97371,0.32170
835.48392,0.30978
833.99413,0.29788
832.50434,0.32792
831.01455,0.31057
829.52477,0.26915
828.03498,0.25186
826.54519,0.23178
825.05540,0.21172
823.56561,0.19986
822.07582,0.19498
820.58604,0.15183
819.09625,0.15396
817.60646,0.15612
816.11667,0.16018
814.62688,0.16560
813.13709,0.17801
811.64730,0.16044
810.15752,0.15147
808.66773,0.14252
807.17794,0.17163
805.68815,0.18255
804.19836,0.17582
802.70857,0.18023
801.21879,0.18466
799.72900,0.16595
798.23921,0.14779
796.74942,0.16207
795.25963,0.16057
793.76984,0.15910
792.28006,0.17988
790.79027,0.18273
789.30048,0.19954
787.81069,0.23485
786.32090,0.25506
784.83111,0.27529
783.34132,0.30371
781.85154,0.33001
780.36175,0.34696
778.87196,0.37519
777.38217,0.40344
775.89238,0.41939
774.40259,0.43403
772.91281,0.40236
771.42302,0.40151
769.93323,0.40069
768.44344,0.36079
766.95365,0.30912
765.46386,0.28132
763.97407,0.25301
762.48429,0.21388
760.99450,0.17477
759.50471,0.13233
758.01492,0.12366
756.52513,0.11101
755.03534,0.10681
753.54556,0.10263
752.05577,0.10103
750.56598,0.08578
749.07619,0.07539
747.58640,0.06394
746.09661,0.05252
744.60683,0.04890
743.11704,0.05386
741.62725,0.03153
740.13746,0.02757
738.64767,0.02364
737.15788,0.02201
735.66809,0.00995
734.17831,0.02240
732.68852,0.02751
731.19873,0.03265
729.70894,0.01893
728.21915,0.03683
726.72936,0.03655
725.23958,0.03308
723.74979,0.02468
722.26000,0.01630
720.77021,0.00995
719.28042,0.01048
717.79063,0.01022
716.30084,0.02232
714.81106,0.03443
713.32127,0.02889
711.83148,0.02981
710.34169,0.02218
708.85190,0.02488
707.36211,0.02761
705.87233,0.02942
704.38254,0.04813
702.89275,0.04384
701.40296,0.04184
699.91317,0.03987
698.42338,0.05198
696.93360,0.07670
695.44381,0.08216
693.95402,0.09917
692.46423,0.11620
690.97444,0.12173
689.48465,0.13720
687.99486,0.16314
686.50508,0.16553
685.01529,0.16795
683.52550,0.20226
682.03571,0.20393
680.54592,0.21365
679.05613,0.22272
677.56635,0.23182
676.07656,0.23090
674.58677,0.22545
673.09698,0.19298
671.60719,0.18330
670.11740,0.17363
668.62761,0.14552
667.13783,0.14421
665.64804,0.13515
664.15825,0.12612
662.66846,0.10239
661.17867,0.06957
659.68888,0.05070
658.19910,0.04512
656.70931,0.03955
655.21952,0.02237
653.72973,0.03520
652.23994,0.04805
650.75015,0.04781
649.26037,0.04759
647.77058,0.04927
646.28079,0.03651
644.79100,0.02351
643.30121,0.02204
641.81142,0.02061
640.32163,0.01946
638.83185,0.03655
637.34206,0.02795
635.85227,0.03116
634.36248,0.03439
632.87269,0.01623
631.38290,0.02701
629.89312,0.01318
628.40333,0.01155
626.91354,0.00995
625.42375,0.01778
623.93396,0.02295
622.44417,0.02171
620.95438,0.02050
619.46460,0.02709
617.97481,0.04306
616.48502,0.05344
614.99523,0.06961
613.50544,0.08579
612.01565,0.10883
610.52587,0.16028
609.03608,0.19622
607.54629,0.20715
606.05650,0.21810
604.56671,0.26482
603.07692,0.32550
601.58714,0.33170
600.09735,0.33792
598.60756,0.40269
597.11777,0.41633
595.62798,0.44874
594.13819,0.42345
592.64840,0.39820
591.15862,0.37042
589.66883,0.33543
588.17904,0.26324
586.68925,0.24223
585.19946,0.22125
583.70967,0.16573
582.21989,0.16113
580.73010,0.13941
579.24031,0.11772
577.75052,0.10810
576.26073,0.07896
574.77094,0.07742
573.28115,0.07551
571.79137,0.07362
570.30158,0.10188
568.81179,0.11329
567.32200,0.11255
565.83221,0.11183
564.34242,0.14099
562.85264,0.14661
561.36285,0.15895
559.87306,0.17412
558.38327,0.18932
556.89348,0.19129
555.40369,0.20586
553.91391,0.22529
552.42412,0.24473
550.93433,0.23394
549.44454,0.23683
547.95475,0.22742
546.46496,0.22353
544.97517,0.21966
543.48539,0.25559
541.99560,0.29609
540.50581,0.30836
539.01602,0.32066
537.52623,0.39097
536.03644,0.41791
534.54666,0.44112
533.05687,0.46490
531.56708,0.48870
530.07729,0.51332
528.58750,0.54253
527.09771,0.56921
525.60792,0.59592
524.11814,0.65573
522.62835,0.72627
521.13856,0.75693
519.64877,0.77771
518.15898,0.79851
516.66919,0.86728
515.17941,0.90634
513.68962,0.90766
512.19983,0.90901
510.71004,0.81798
509.22025,0.76394
507.73046,0.67832
506.24068,0.62767
504.75089,0.57705
503.26110,0.49846
501.77131,0.38910
500.28152,0.34685
498.79173,0.30462
497.30194,0.24890
495.81216,0.19855
494.32237,0.18854
492.83258,0.17854
491.34279,0.11970
489.85300,0.09864
488.36321,0.09368
486.87343,0.10133
485.38364,0.10900
483.89385,0.10062
482.40406,0.10486
480.91427,0.12251
479.42448,0.14019
477.93469,0.14369
476.44491,0.17856
474.95512,0.19028
473.46533,0.20203
471.97554,0.20831
470.48575,0.22077
468.99596,0.21130
467.50618,0.19100
466.01639,0.17073
464.52660,0.16588
463.03681,0.13026
461.54702,0.11301
460.05723,0.09578
458.56745,0.06103
457.07766,0.06353
455.58787,0.05535
454.09808,0.04719
452.60829,0.03932
451.11850,0.01620
449.62871,0.02003
448.13893,0.02388
446.64914,0.00995
445.15935,0.02938
443.66956,0.03919
442.17977,0.03001
440.68998,0.02086
439.20020,0.02405
437.71041,0.03664
436.22062,0.03827
434.73083,0.03992
433.24104,0.03758
431.75125,0.03982
430.26146,0.03445
428.77168,0.02910
427.28189,0.01909
425.79210,0.03535
424.30231,0.04186
422.81252,0.04839
421.32273,0.03366
419.83295,0.04412
418.34316,0.03707
416.85337,0.03004
415.36358,0.02236
413.87379,0.02355
412.38400,0.03721
410.89422,0.05090
409.40443,0.05404
407.91464,0.03818
406.42485,0.04564
404.93506,0.04831
403.44527,0.05101
401.95548,0.03632
400.46570,0.03183
398.97591,0.02884
397.48612,0.02587
395.99633,0.01636
394.50654,0.03179
393.01675,0.02086
391.52697,0.00995
390.03718,0.02420
388.54739,0.03232
387.05760,0.03350
385.56781,0.03470
384.07802,0.03405
382.58824,0.00772
381.09845,0.00698
379.60866,0.00627
378.11887,0.01108
376.62908,0.01082
375.13929,0.01286
373.64950,0.01492
372.15972,0.00000
370.66993,0.02247
369.18014,0.02412
367.69035,0.02579
366.20056,0.02575
364.71077,0.04019
363.22099,0.03872
361.73120,0.03728
360.24141,0.01912
358.75162,0.02964
357.26183,0.04260
355.77204,0.05558
354.28225,0.04234
352.79247,0.04867
351.30268,0.06627
349.81289,0.08390
348.32310,0.05094
346.83331,0.06299
345.34352,0.05203
343.85374,0.04110
342.36395,0.04760
340.87416,0.05573
339.38437,0.04394
337.89458,0.03217
336.40479,0.02376
334.91501,0.03628
333.42522,0.03475
331.93543,0.03325
330.44564,0.00995
328.95585,0.01534
327.46606,0.02572
325.97627,0.03611
324.48649,0.04268
322.99670,0.08596
321.50691,0.09137
320.01712,0.09681
318.52733,0.09919
317.03754,0.06945
315.54776,0.07215
314.05797,0.07487
312.56818,0.07573
311.07839,0.07930
309.58860,0.06750
308.09881,0.05572
306.60902,0.06284
305.11924,0.05499
303.62945,0.05614
302.13966,0.05731
300.64987,0.01123
299.16008,0.00995
