1778.52000,0.02577
1777.03021,0.03395
1775.54042,0.02964
1774.05063,0.02256
1772.56085,0.02015
1771.07106,0.03678
1769.58127,0.02513
1768.09148,0.01305
1766.60169,0.02093
1765.11190,0.02095
1763.62212,0.00708
1762.13233,0.02524
1760.64254,0.01374
1759.15275,0.01478
1757.66296,0.02280
1756.17317,0.02621
1754.68339,0.01433
1753.19360,0.01918
1751.70381,0.01570
1750.21402,0.01549
1748.72423,0.01576
1747.23444,0.02163
1745.74465,0.02195
1744.25487,0.02323
1742.76508,0.01246
1741.27529,0.02816
1739.78550,0.02255
1738.29571,0.01046
1736.80592,0.01974
1735.31614,0.02625
1733.82635,0.01656
1732.33656,0.00363
1730.84677,0.02089
1729.35698,0.02471
1727.86719,0.02578
1726.37740,0.00414
1724.88762,0.01528
1723.39783,0.02134
1721.90804,0.01769
1720.41825,0.01452
1718.92846,0.00766
1717.43867,0.01163
1715.94889,0.01469
1714.45910,0.01731
1712.96931,0.01485
1711.47952,0.00406
1709.98973,0.02287
1708.49994,0.02501
1707.01016,0.01603
1705.52037,0.00708
1704.03058,0.03003
1702.54079,0.03490
1701.05100,0.02171
1699.56121,0.02571
1698.07142,0.02277
1696.58164,0.01753
1695.09185,0.01557
1693.60206,0.01919
1692.11227,0.02284
1690.62248,0.02048
1689.13269,0.01861
1687.64291,0.02464
1686.15312,0.03163
1684.66333,0.02055
1683.17354,0.02155
1681.68375,0.02908
1680.19396,0.02410
1678.70417,0.02842
1677.21439,0.02348
1675.72460,0.03202
1674.23481,0.04615
1672.74502,0.02505
1671.25523,0.06103
1669.76544,0.05714
1668.27566,0.06765
1666.78587,0.06938
1665.29608,0.07808
1663.80629,0.07011
1662.31650,0.07004
1660.82671,0.08299
1659.33693,0.08065
1657.84714,0.08715
1656.35735,0.08718
1654.86756,0.07100
1653.37777,0.08406
1651.88798,0.09343
1650.39819,0.08335
1648.90841,0.09138
1647.41862,0.09016
1645.92883,0.09429
1644.43904,0.09845
1642.94925,0.08801
1641.45946,0.09245
1639.96968,0.08856
1638.47989,0.10417
1636.99010,0.09615
1635.50031,0.11552
1634.01052,0.09178
1632.52073,0.10146
1631.03094,0.10049
1629.54116,0.11299
1628.05137,0.10836
1626.56158,0.10607
1625.07179,0.10287
1623.58200,0.08903
1622.09221,0.11789
1620.60243,0.11058
1619.11264,0.10934
1617.62285,0.11414
1616.13306,0.10737
1614.64327,0.10202
1613.15348,0.11803
1611.66370,0.10159
1610.17391,0.08424
1608.68412,0.09800
1607.19433,0.10436
1605.70454,0.10750
1604.21475,0.10346
1602.72496,0.09946
1601.23518,0.09477
1599.74539,0.10032
1598.25560,0.12677
1596.76581,0.10917
1595.27602,0.10319
1593.78623,0.10001
1592.29645,0.10382
1590.80666,0.11554
1589.31687,0.09109
1587.82708,0.10471
1586.33729,0.11232
1584.84750,0.10279
1583.35771,0.09607
1581.86793,0.10236
1580.37814,0.10403
1578.88835,0.10341
1577.39856,0.08797
1575.90877,0.08739
1574.41898,0.07478
1572.92920,0.05430
1571.43941,0.05518
1569.94962,0.05540
1568.45983,0.05563
1566.97004,0.05891
1565.48025,0.05942
1563.99047,0.04975
1562.50068,0.05680
1561.01089,0.04347
1559.52110,0.04779
1558.03131,0.02893
1556.54152,0.02634
1555.05173,0.04279
1553.56195,0.04488
1552.07216,0.03539
1550.58237,0.04031
1549.09258,0.02253
1547.60279,0.00708
1546.11300,0.01825
1544.62322,0.02573
1543.13343,0.02395
1541.64364,0.01988
1540.15385,0.02232
1538.66406,0.02479
1537.17427,0.02635
1535.68448,0.01680
1534.19470,0.01238
1532.70491,0.01865
1531.21512,0.03098
1529.72533,0.03869
1528.23554,0.02648
1526.74575,0.02449
1525.25597,0.01974
1523.76618,0.03311
1522.27639,0.03444
1520.78660,0.03162
1519.29681,0.04042
1517.80702,0.03857
1516.31724,0.06737
1514.82745,0.04284
1513.33766,0.04500
1511.84787,0.04719
1510.35808,0.06402
1508.86829,0.06648
1507.37850,0.06665
1505.88872,0.05850
1504.39893,0.06938
1502.90914,0.06638
1501.41935,0.05226
1499.92956,0.07760
1498.43977,0.09229
1496.94999,0.08891
1495.46020,0.10689
1493.97041,0.10402
1492.48062,0.11417
1490.99083,0.13825
1489.50104,0.12618
1488.01125,0.13894
1486.52147,0.15173
1485.03168,0.17173
1483.54189,0.16856
1482.05210,0.19974
1480.56231,0.20450
1479.07252,0.23202
1477.58274,0.24518
1476.09295,0.25697
1474.60316,0.24512
1473.11337,0.25186
1471.62358,0.26743
1470.13379,0.28627
1468.64401,0.31163
1467.15422,0.29248
1465.66443,0.31139
1464.17464,0.33032
1462.68485,0.35717
1461.19506,0.40537
1459.70527,0.44200
1458.21549,0.50092
1456.72570,0.53528
1455.23591,0.60863
1453.74612,0.66901
1452.25633,0.70112
1450.76654,0.73650
1449.27676,0.74870
1447.78697,0.74145
1446.29718,0.71938
1444.80739,0.70104
1443.31760,0.68272
1441.82781,0.63938
1440.33802,0.55709
1438.84824,0.53792
1437.35845,0.51691
1435.86866,0.48247
1434.37887,0.50883
1432.88908,0.53799
1431.39929,0.62423
1429.90951,0.70076
1428.41972,0.72813
1426.92993,0.82651
1425.44014,0.90960
1423.95035,0.91733
1422.46056,0.92508
1420.97078,0.97298
1419.48099,1.00096
1417.99120,0.99556
1416.50141,0.93127
1415.01162,0.90041
1413.52183,0.84220
1412.03204,0.80674
1410.54226,0.75693
1409.05247,0.69693
1407.56268,0.63092
1406.07289,0.60205
1404.58310,0.54421
1403.09331,0.48639
1401.60353,0.45667
1400.11374,0.39681
1398.62395,0.34207
1397.13416,0.31984
1395.64437,0.25819
1394.15458,0.20214
1392.66479,0.16002
1391.17501,0.13927
1389.68522,0.14405
1388.19543,0.12984
1386.70564,0.09779
1385.21585,0.06577
1383.72606,0.07018
1382.23628,0.03472
1380.74649,0.03129
1379.25670,0.01815
1377.76691,0.03332
1376.27712,0.03275
1374.78733,0.01596
1373.29755,0.00708
1371.80776,0.02995
1370.31797,0.01341
1368.82818,0.01800
1367.33839,0.02261
1365.84860,0.03630
1364.35881,0.04490
1362.86903,0.04981
1361.37924,0.05800
1359.88945,0.07502
1358.39966,0.08093
1356.90987,0.12769
1355.42008,0.15777
1353.93030,0.24911
1352.44051,0.26207
1350.95072,0.27506
1349.46093,0.36878
1347.97114,0.43980
1346.48135,0.48904
1344.99156,0.60232
1343.50178,0.63630
1342.01199,0.73617
1340.52220,0.81658
1339.03241,0.83300
1337.54262,0.85176
1336.05283,0.85640
1334.56305,0.86106
1333.07326,0.94298
1331.58347,0.90570
1330.09368,0.87912
1328.60389,0.90451
1327.11410,0.82416
1325.62432,0.78698
1324.13453,0.77904
1322.64474,0.74469
1321.15495,0.70618
1319.66516,0.69438
1318.17537,0.68259
1316.68558,0.62885
1315.19580,0.57234
1313.70601,0.51308
1312.21622,0.50208
1310.72643,0.45492
1309.23664,0.41521
1307.74685,0.40707
1306.25707,0.36415
1304.76728,0.33703
1303.27749,0.30994
1301.78770,0.27637
1300.29791,0.23912
1298.80812,0.24503
1297.31834,0.18092
1295.82855,0.15440
1294.33876,0.13997
1292.84897,0.12278
1291.35918,0.09912
1289.86939,0.10564
1288.37960,0.11217
1286.88982,0.11456
1285.40003,0.11325
1283.91024,0.08089
1282.42045,0.07871
1280.93066,0.06820
1279.44087,0.03916
1277.95109,0.05977
1276.46130,0.03449
1274.97151,0.03218
1273.48172,0.02991
1271.99193,0.02835
1270.50214,0.01661
1269.01235,0.03922
1267.52257,0.03495
1266.03278,0.03534
1264.54299,0.02879
1263.05320,0.03758
1261.56341,0.03317
1260.07362,0.02878
1258.58384,0.01861
1257.09405,0.00708
1255.60426,0.01218
1254.11447,0.00756
1252.62468,0.01040
1251.13489,0.00816
1249.64511,0.00866
1248.15532,0.03468
1246.66553,0.02919
1245.17574,0.02372
1243.68595,0.02987
1242.19616,0.01053
1240.70637,0.02462
1239.21659,0.01506
1237.72680,0.01064
1236.23701,0.01737
1234.74722,0.02783
1233.25743,0.01884
1231.76764,0.00987
1230.27786,0.02272
1228.78807,0.01379
1227.29828,0.00721
1225.80849,0.02013
1224.31870,0.01591
1222.82891,0.00708
1221.33912,0.02227
1219.84934,0.02657
1218.35955,0.03090
1216.86976,0.05173
1215.37997,0.05680
1213.89018,0.06932
1212.40039,0.05495
1210.91061,0.06891
1209.42082,0.06758
1207.93103,0.06488
1206.44124,0.06221
1204.95145,0.05816
1203.46166,0.06156
1201.97188,0.05478
1200.48209,0.05823
1198.99230,0.05289
1197.50251,0.04896
1196.01272,0.05898
1194.52293,0.05718
1193.03314,0.05541
1191.54336,0.03905
1190.05357,0.01344
1188.56378,0.01707
1187.07399,0.02630
1185.58420,0.03090
1184.09441,0.01095
1182.60463,0.01491
1181.11484,0.01889
1179.62505,0.00874
1178.13526,0.01208
1176.64547,0.00708
1175.15568,0.01305
1173.66589,0.02183
1172.17611,0.01069
1170.68632,0.01603
1169.19653,0.02140
1167.70674,0.00708
1166.21695,0.02933
1164.72716,0.01914
1163.23738,0.01871
1161.74759,0.05541
1160.25780,0.07683
1158.76801,0.07809
1157.27822,0.07937
1155.78843,0.09297
1154.29865,0.09871
1152.80886,0.09520
1151.31907,0.13067
1149.82928,0.11467
1148.33949,0.13628
1146.84970,0.14236
1145.35991,0.14847
1143.87013,0.15947
1142.38034,0.14452
1140.89055,0.15464
1139.40076,0.16943
1137.91097,0.17913
1136.42118,0.20834
1134.93140,0.20603
1133.44161,0.20374
1131.95182,0.24184
1130.46203,0.23310
1128.97224,0.24851
1127.48245,0.24863
1125.99266,0.23579
1124.50288,0.25452
1123.01309,0.25262
1121.52330,0.25075
1120.03351,0.25378
1118.54372,0.24198
1117.05393,0.24598
1115.56415,0.25556
1114.07436,0.24430
1112.58457,0.24814
1111.09478,0.25199
1109.60499,0.23059
1108.11520,0.24354
1106.62542,0.23193
1105.13563,0.23194
1103.64584,0.22223
1102.15605,0.21161
1100.66626,0.20821
1099.17647,0.20483
1097.68668,0.21284
1096.19690,0.19536
1094.70711,0.21965
1093.21732,0.21057
1091.72753,0.19965
1090.23774,0.19804
1088.74795,0.19644
1087.25817,0.18699
1085.76838,0.18637
1084.27859,0.17325
1082.78880,0.17963
1081.29901,0.18048
1079.80922,0.19665
1078.31943,0.21006
1076.82965,0.22350
1075.33986,0.21098
1073.85007,0.21751
1072.36028,0.21617
1070.87049,0.23898
1069.38070,0.24186
1067.89092,0.26796
1066.40113,0.29408
1064.91134,0.35595
1063.42155,0.40485
1061.93176,0.51222
1060.44197,0.62704
1058.95219,0.70152
1057.46240,0.74750
1055.97261,0.79350
1054.48282,0.84347
1052.99303,0.87769
1051.50324,0.89894
1050.01345,0.91604
1048.52367,0.92806
1047.03388,0.89117
1045.54409,0.85429
1044.05430,0.79402
1042.56451,0.71985
1041.07472,0.67725
1039.58494,0.61333
1038.09515,0.60603
1036.60536,0.56791
1035.11557,0.52980
1033.62578,0.47758
1032.13599,0.39476
1030.64620,0.34582
1029.15642,0.24542
1027.66663,0.24362
1026.17684,0.24184
1024.68705,0.19532
1023.19726,0.15392
1021.70747,0.14873
1020.21769,0.12826
1018.72790,0.12543
1017.23811,0.12286
1015.74832,0.12032
1014.25853,0.09854
1012.76874,0.08236
1011.27896,0.07316
1009.78917,0.06862
1008.29938,0.03070
1006.80959,0.03641
1005.31980,0.04215
1003.83001,0.00708
1002.34022,0.03464
1000.85044,0.03855
999.36065,0.05641
997.87086,0.05226
996.38107,0.04813
994.89128,0.07997
993.40149,0.08865
991.91171,0.11219
990.42192,0.12740
988.93213,0.12501
987.44234,0.12264
985.95255,0.12030
984.46276,0.12447
982.97297,0.10965
981.48319,0.09485
979.99340,0.08425
978.50361,0.07158
977.01382,0.05894
975.52403,0.04934
974.03424,0.01702
972.54446,0.01906
971.05467,0.00814
969.56488,0.00744
968.07509,0.00862
966.58530,0.00983
965.09551,0.01708
963.60573,0.01926
962.11594,0.00708
960.62615,0.02698
959.13636,0.02023
957.64657,0.01350
956.15678,0.00656
954.66699,0.01667
953.17721,0.01984
951.68742,0.04530
950.19763,0.03692
948.70784,0.02856
947.21805,0.04806
945.72826,0.05738
944.23848,0.10151
942.74869,0.09510
941.25890,0.12118
939.76911,0.13361
938.27932,0.14606
936.78953,0.16386
935.29974,0.16406
933.80996,0.17496
932.32017,0.21139
930.83038,0.21838
929.34059,0.22540
927.85080,0.22479
926.36101,0.26827
924.87123,0.29508
923.38144,0.35902
921.89165,0.37033
920.40186,0.38166
918.91207,0.48046
917.42228,0.56954
915.93250,0.73055
914.44271,0.91895
912.95292,1.01923
911.46313,1.11954
909.97334,1.32331
908.48355,1.63659
906.99376,1.83948
905.50398,1.92365
904.01419,1.94846
902.52440,1.97329
901.03461,2.00000
899.54482,1.91123
898.05503,1.79975
896.56525,1.53799
895.07546,1.42447
893.58567,1.31097
892.09588,1.08407
890.60609,0.81870
889.11630,0.60067
887.62651,0.44110
886.13673,0.38037
884.64694,0.31966
883.15715,0.24599
881.66736,0.17327
880.17757,0.14742
878.68778,0.12971
877.19800,0.11203
875.70821,0.08579
874.21842,0.06792
872.72863,0.06213
871.23884,0.04292
869.74905,0.04275
868.25927,0.04260
866.76948,0.03412
865.27969,0.03077
863.78990,0.05667
862.30011,0.05244
860.81032,0.05380
859.32053,0.05518
857.83075,0.07653
856.34096,0.08956
854.85117,0.11513
853.36138,0.12032
851.87159,0.13109
850.38180,0.14189
848.89202,0.17452
847.40223,0.17608
845.91244,0.19113
844.42265,0.20109
842.93286,0.21108
841.44307,0.23547
839.95329,0.25339
838.46350,0.25463
836.97371,0.26981
835.48392,0.26971
833.99413,0.26963
832.50434,0.24638
831.01455,0.25377
829.52477,0.23056
828.03498,0.22222
826.54519,0.20347
825.05540,0.18475
823.56561,0.16395
822.07582,0.14968
820.58604,0.13311
819.09625,0.13071
817.60646,0.12833
816.11667,0.11322
814.62688,0.14638
813.13709,0.13642
811.64730,0.14735
810.15752,0.13303
808.66773,0.11873
807.17794,0.12881
805.68815,0.14494
804.19836,0.17270
802.70857,0.16475
801.21879,0.15683
799.72900,0.14105
798.23921,0.13735
796.74942,0.11929
795.25963,0.12770
793.76984,0.13613
792.28006,0.14459
790.79027,0.15585
789.30048,0.17734
787.81069,0.20859
786.32090,0.20670
784.83111,0.20484
783.34132,0.26353
781.85154,0.28931
780.36175,0.34620
778.87196,0.34906
777.38217,0.35195
775.89238,0.38942
774.40259,0.38516
772.91281,0.38047
771.42302,0.35631
769.93323,0.33217
768.44344,0.32384
766.95365,0.27563
765.46386,0.24321
763.97407,0.20618
762.48429,0.17219
760.99450,0.13822
759.50471,0.12121
758.01492,0.10515
756.52513,0.08447
755.03534,0.08585
753.54556,0.08725
752.05577,0.07685
750.56598,0.07760
749.07619,0.05194
747.58640,0.04230
746.09661,0.03268
744.60683,0.02471
743.11704,0.03625
741.62725,0.00838
740.13746,0.01255
738.64767,0.01673
737.15788,0.01909
735.66809,0.00708
734.17831,0.02019
732.68852,0.02520
731.19873,0.03023
729.70894,0.02625
728.21915,0.01950
726.72936,0.02252
725.23958,0.00978
723.74979,0.01778
722.26000,0.02580
720.77021,0.01598
719.28042,0.01638
717.79063,0.02146
716.30084,0.01426
714.81106,0.00708
713.32127,0.01576
711.83148,0.01147
710.34169,0.01833
708.85190,0.02105
707.36211,0.02379
705.87233,0.03861
704.38254,0.04882
702.89275,0.05441
701.40296,0.05747
699.91317,0.06056
698.42338,0.06111
696.93360,0.06726
695.44381,0.07343
693.95402,0.07754
692.46423,0.08167
690.97444,0.11620
689.48465,0.13870
687.99486,0.17050
686.50508,0.19119
685.01529,0.21191
683.52550,0.18625
682.03571,0.20933
680.54592,0.19904
679.05613,0.21404
677.56635,0.22907
676.07656,0.24900
674.58677,0.22302
673.09698,0.19707
671.60719,0.17601
670.11740,0.15497
668.62761,0.15970
667.13783,0.11621
665.64804,0.10893
664.15825,0.10167
662.66846,0.08052
661.17867,0.06959
659.68888,0.06101
658.19910,0.05593
656.70931,0.05087
655.21952,0.03494
653.72973,0.02645
652.23994,0.04535
650.75015,0.05036
649.26037,0.05540
647.77058,0.04700
646.28079,0.00708
644.79100,0.03708
643.30121,0.02722
641.81142,0.01737
640.32163,0.03352
638.83185,0.02419
637.34206,0.01720
635.85227,0.01950
634.36248,0.02183
632.87269,0.01213
631.38290,0.01497
629.89312,0.00995
628.40333,0.01492
626.91354,0.01992
625.42375,0.00708
623.93396,0.03355
622.44417,0.03383
620.95438,0.03413
619.46460,0.02634
617.97481,0.01811
616.48502,0.06371
614.99523,0.07478
613.50544,0.08587
612.01565,0.10742
610.52587,0.14522
609.03608,0.16960
607.54629,0.19841
606.05650,0.22725
604.56671,0.25030
603.07692,0.29565
601.58714,0.30159
600.09735,0.30755
598.60756,0.32560
597.11777,0.37197
595.62798,0.38774
594.13819,0.37315
592.64840,0.35859
591.15862,0.35773
589.66883,0.29706
588.17904,0.23455
586.68925,0.22518
585.19946,0.21583
583.70967,0.16824
582.21989,0.14943
580.73010,0.14642
579.24031,0.14343
577.75052,0.10474
576.26073,0.06422
574.77094,0.05805
573.28115,0.06559
571.79137,0.07315
570.30158,0.10185
568.81179,0.09577
567.32200,0.09412
565.83221,0.09250
564.34242,0.11154
562.85264,0.11948
561.36285,0.13300
559.87306,0.15258
558.38327,0.17218
556.89348,0.18948
555.40369,0.17851
553.91391,0.18658
552.42412,0.19468
550.93433,0.20558
549.44454,0.19517
547.95475,0.19220
546.46496,0.20410
544.97517,0.21602
543.48539,0.23632
541.99560,0.27148
540.50581,0.28556
539.01602,0.29966
537.52623,0.36180
536.03644,0.37293
534.54666,0.40775
533.05687,0.42240
531.56708,0.43709
530.07729,0.46733
528.58750,0.52497
527.09771,0.54993
525.60792,0.57491
524.11814,0.63215
522.62835,0.70751
521.13856,0.74856
519.64877,0.75554
518.15898,0.76255
516.66919,0.83243
515.17941,0.88100
513.68962,0.89550
512.19983,0.91002
510.71004,0.83990
509.22025,0.76331
507.73046,0.65659
506.24068,0.61995
504.75089,0.58332
503.26110,0.49245
501.77131,0.39185
500.28152,0.35507
498.79173,0.31830
497.30194,0.27020
495.81216,0.19938
494.32237,0.18287
492.83258,0.16638
491.34279,0.15640
489.85300,0.10099
488.36321,0.09292
486.87343,0.09902
485.38364,0.10514
483.89385,0.11059
482.40406,0.09983
480.91427,0.11390
479.42448,0.12801
477.93469,0.15674
476.44491,0.17251
474.95512,0.18831
473.46533,0.20412
471.97554,0.22971
470.48575,0.18758
468.99596,0.16404
467.50618,0.17021
466.01639,0.17640
464.52660,0.15385
463.03681,0.11788
461.54702,0.09283
460.05723,0.06780
458.56745,0.05184
457.07766,0.05353
455.58787,0.05107
454.09808,0.04863
452.60829,0.04251
451.11850,0.03919
449.62871,0.02940
448.13893,0.01963
446.64914,0.01917
445.15935,0.03682
443.66956,0.01459
442.17977,0.02185
440.68998,0.02913
439.20020,0.02600
437.71041,0.04237
436.22062,0.03627
434.73083,0.03019
433.24104,0.03272
431.75125,0.03759
430.26146,0.04735
428.77168,0.05713
427.28189,0.04259
425.79210,0.04709
424.30231,0.06181
422.81252,0.07656
421.32273,0.05283
419.83295,0.04304
418.34316,0.03327
416.85337,0.02353
415.36358,0.03283
413.87379,0.05235
412.38400,0.04964
410.89422,0.04694
409.40443,0.04984
407.91464,0.03374
406.42485,0.05060
404.93506,0.04499
403.44527,0.03939
401.95548,0.06514
400.46570,0.04962
398.97591,0.04293
397.48612,0.03627
395.99633,0.01201
394.50654,0.02163
393.01675,0.01434
391.52697,0.00708
390.03718,0.02929
388.54739,0.05802
387.05760,0.04642
385.56781,0.03483
384.07802,0.01446
382.58824,0.01777
381.09845,0.01901
379.60866,0.02028
378.11887,0.00000
376.62908,0.00711
375.13929,0.02097
373.64950,0.03486
372.15972,0.01374
370.66993,0.00796
369.18014,0.01424
367.69035,0.02054
366.20056,0.01667
364.71077,0.03276
363.22099,0.02127
361.73120,0.00981
360.24141,0.00278
358.75162,0.01015
357.26183,0.02589
355.77204,0.04166
354.28225,0.02962
352.79247,0.04125
351.30268,0.04735
349.81289,0.05347
348.32310,0.05543
346.83331,0.03748
345.34352,0.03508
343.85374,0.03271
342.36395,0.03848
340.87416,0.03546
339.38437,0.03780
337.89458,0.04016
336.40479,0.04927
334.91501,0.04773
333.42522,0.03207
331.93543,0.01643
330.44564,0.00708
328.95585,0.02958
327.46606,0.02380
325.97627,0.01805
324.48649,0.06384
322.99670,0.06326
321.50691,0.06317
320.01712,0.06310
318.52733,0.05935
317.03754,0.06536
315.54776,0.07696
314.05797,0.08858
312.56818,0.07379
311.07839,0.07108
309.58860,0.07187
308.09881,0.07268
306.60902,0.06123
305.11924,0.04748
303.62945,0.04094
302.13966,0.03442
300.64987,0.02399
299.16008,0.00708
