1778.52000,0.00450
1777.03021,0.01369
1775.54042,0.00989
1774.05063,0.00654
1772.56085,0.01174
1771.07106,0.01378
1769.58127,0.02159
1768.09148,0.01578
1766.60169,0.01276
1765.11190,0.01851
1763.62212,0.00915
1762.13233,0.01089
1760.64254,0.01160
1759.15275,0.01895
1757.66296,0.01608
1756.17317,0.00000
1754.68339,0.01147
1753.19360,0.01209
1751.70381,0.00846
1750.21402,0.00998
1748.72423,0.01045
1747.23444,0.01266
1745.74465,0.00592
1744.25487,0.01031
1742.76508,0.01899
1741.27529,0.00892
1739.78550,0.01189
1738.29571,0.01701
1736.80592,0.00915
1735.31614,0.01682
1733.82635,0.01727
1732.33656,0.01155
1730.84677,0.00650
1729.35698,0.01320
1727.86719,0.01311
1726.37740,0.00599
1724.88762,0.01960
1723.39783,0.01872
1721.90804,0.01339
1720.41825,0.00915
1718.92846,0.01278
1717.43867,0.01452
1715.94889,0.01927
1714.45910,0.02341
1712.96931,0.01861
1711.47952,0.02343
1709.98973,0.01740
1708.49994,0.01224
1707.01016,0.01404
1705.52037,0.01587
1704.03058,0.01506
1702.54079,0.00915
1701.05100,0.01210
1699.56121,0.01593
1698.07142,0.02320
1696.58164,0.01897
1695.09185,0.02927
1693.60206,0.03299
1692.11227,0.03139
1690.62248,0.02193
1689.13269,0.03041
1687.64291,0.03059
1686.15312,0.03059
1684.66333,0.03551
1683.17354,0.03385
1681.68375,0.03712
1680.19396,0.04233
1678.70417,0.03391
1677.21439,0.04280
1675.72460,0.03400
1674.23481,0.04636
1672.74502,0.04657
1671.25523,0.04766
1669.76544,0.06328
1668.27566,0.05888
1666.78587,0.06473
1665.29608,0.07787
1663.80629,0.05881
1662.31650,0.06666
1660.82671,0.06451
1659.33693,0.09460
1657.84714,0.07777
1656.35735,0.08188
1654.86756,0.08473
1653.37777,0.07865
1651.88798,0.08261
1650.39819,0.08831
1648.90841,0.07057
1647.41862,0.07418
1645.92883,0.07461
1644.43904,0.07508
1642.94925,0.07385
1641.45946,0.09655
1639.96968,0.07682
1638.47989,0.08506
1636.99010,0.08735
1635.50031,0.07344
1634.01052,0.08581
1632.52073,0.09287
1631.03094,0.08778
1629.54116,0.10300
1628.05137,0.10778
1626.56158,0.09936
1625.07179,0.10376
1623.58200,0.07789
1622.09221,0.07807
1620.60243,0.08063
1619.11264,0.08598
1617.62285,0.09307
1616.13306,0.08823
1614.64327,0.08470
1613.15348,0.07777
1611.66370,0.09413
1610.17391,0.09835
1608.68412,0.10579
1607.19433,0.09406
1605.70454,0.09515
1604.21475,0.09456
1602.72496,0.09399
1601.23518,0.09238
1599.74539,0.08162
1598.25560,0.08284
1596.76581,0.09261
1595.27602,0.08427
1593.78623,0.09281
1592.29645,0.08878
1590.80666,0.08628
1589.31687,0.07654
1587.82708,0.08241
1586.33729,0.07336
1584.84750,0.08930
1583.35771,0.09694
1581.86793,0.08733
1580.37814,0.08328
1578.88835,0.07628
1577.39856,0.06353
1575.90877,0.06340
1574.41898,0.06052
1572.92920,0.06172
1571.43941,0.06700
1569.94962,0.06174
1568.45983,0.05650
1566.97004,0.06249
1565.48025,0.04973
1563.99047,0.03870
1562.50068,0.03282
1561.01089,0.02759
1559.52110,0.03669
1558.03131,0.03643
1556.54152,0.02914
1555.05173,0.01826
1553.56195,0.01679
1552.07216,0.01939
1550.58237,0.01647
1549.09258,0.02873
1547.60279,0.02266
1546.11300,0.00915
1544.62322,0.02687
1543.13343,0.01091
1541.64364,0.01418
1540.15385,0.01758
1538.66406,0.02101
1537.17427,0.02755
1535.68448,0.02088
1534.19470,0.01361
1532.70491,0.01659
1531.21512,0.01214
1529.72533,0.01705
1528.23554,0.01792
1526.74575,0.01648
1525.25597,0.02423
1523.76618,0.03756
1522.27639,0.04238
1520.78660,0.04786
1519.29681,0.04589
1517.80702,0.03350
1516.31724,0.04396
1514.82745,0.04868
1513.33766,0.04479
1511.84787,0.04092
1510.35808,0.06001
1508.86829,0.05182
1507.37850,0.05773
1505.88872,0.05662
1504.39893,0.06194
1502.90914,0.06217
1501.41935,0.06690
1499.92956,0.06866
1498.43977,0.07387
1496.94999,0.08550
1495.46020,0.08669
1493.97041,0.10029
1492.48062,0.11391
1490.99083,0.14057
1489.50104,0.14400
1488.01125,0.14831
1486.52147,0.15264
1485.03168,0.16895
1483.54189,0.19466
1482.05210,0.20355
1480.56231,0.23358
1479.07252,0.24934
1477.58274,0.28091
1476.09295,0.27581
1474.60316,0.27372
1473.11337,0.29833
1471.62358,0.30653
1470.13379,0.30430
1468.64401,0.29591
1467.15422,0.31314
1465.66443,0.32688
1464.17464,0.34064
1462.68485,0.34579
1461.19506,0.39534
1459.70527,0.46347
1458.21549,0.50902
1456.72570,0.56099
1455.23591,0.60018
1453.74612,0.65966
1452.25633,0.71875
1450.76654,0.75908
1449.27676,0.77063
1447.78697,0.75447
1446.29718,0.71593
1444.80739,0.71870
1443.31760,0.72149
1441.82781,0.65764
1440.33802,0.60148
1438.84824,0.53426
1437.35845,0.52873
1435.86866,0.52513
1434.37887,0.54546
1432.88908,0.59291
1431.39929,0.65020
1429.90951,0.68810
1428.41972,0.73754
1426.92993,0.80642
1425.44014,0.83543
1423.95035,0.85860
1422.46056,0.88179
1420.97078,0.89914
1419.48099,0.96345
1417.99120,0.98255
1416.50141,0.98311
1415.01162,0.93719
1413.52183,0.88403
1412.03204,0.87251
1410.54226,0.80980
1409.05247,0.71319
1407.56268,0.61554
1406.07289,0.56144
1404.58310,0.54684
1403.09331,0.53226
1401.60353,0.46437
1400.11374,0.39607
1398.62395,0.35254
1397.13416,0.31544
1395.64437,0.27304
1394.15458,0.21721
1392.66479,0.19789
1391.17501,0.16836
1389.68522,0.14077
1388.19543,0.10510
1386.70564,0.10145
1385.21585,0.09783
1383.72606,0.08143
1382.23628,0.04948
1380.74649,0.02887
1379.25670,0.02833
1377.76691,0.02696
1376.27712,0.01602
1374.78733,0.02623
1373.29755,0.00915
1371.80776,0.01626
1370.31797,0.02447
1368.82818,0.02832
1367.33839,0.03221
1365.84860,0.02896
1364.35881,0.03577
1362.86903,0.06352
1361.37924,0.06419
1359.88945,0.07449
1358.39966,0.11980
1356.90987,0.15276
1355.42008,0.19385
1353.93030,0.26484
1352.44051,0.28849
1350.95072,0.31216
1349.46093,0.39794
1347.97114,0.46817
1346.48135,0.56126
1344.99156,0.65096
1343.50178,0.70334
1342.01199,0.76428
1340.52220,0.78364
1339.03241,0.82948
1337.54262,0.88324
1336.05283,0.90075
1334.56305,0.91829
1333.07326,0.94417
1331.58347,0.97157
1330.09368,0.98833
1328.60389,0.93086
1327.11410,0.91481
1325.62432,0.87659
1324.13453,0.86400
1322.64474,0.84332
1321.15495,0.80560
1319.66516,0.78466
1318.17537,0.76374
1316.68558,0.70241
1315.19580,0.62894
1313.70601,0.61033
1312.21622,0.57532
1310.72643,0.53692
1309.23664,0.49150
1307.74685,0.46979
1306.25707,0.42847
1304.76728,0.40691
1303.27749,0.38538
1301.78770,0.30979
1300.29791,0.29140
1298.80812,0.27815
1297.31834,0.24893
1295.82855,0.21333
1294.33876,0.16943
1292.84897,0.14626
1291.35918,0.10924
1289.86939,0.10681
1288.37960,0.10440
1286.88982,0.09220
1285.40003,0.09603
1283.91024,0.09114
1282.42045,0.08733
1280.93066,0.09443
1279.44087,0.07852
1277.95109,0.07223
1276.46130,0.05572
1274.97151,0.05417
1273.48172,0.05264
1271.99193,0.03706
1270.50214,0.03879
1269.01235,0.03435
1267.52257,0.04017
1266.03278,0.03920
1264.54299,0.03569
1263.05320,0.02729
1261.56341,0.02095
1260.07362,0.01463
1258.58384,0.02636
1257.09405,0.01678
1255.60426,0.00915
1254.11447,0.03349
1252.62468,0.01648
1251.13489,0.01591
1249.64511,0.01516
1248.15532,0.03064
1246.66553,0.02567
1245.17574,0.02072
1243.68595,0.02839
1242.19616,0.02775
1240.70637,0.01946
1239.21659,0.02229
1237.72680,0.00915
1236.23701,0.03574
1234.74722,0.03164
1233.25743,0.02629
1231.76764,0.02095
1230.27786,0.01693
1228.78807,0.01143
1227.29828,0.01492
1225.80849,0.02462
1224.31870,0.02346
1222.82891,0.02425
1221.33912,0.03850
1219.84934,0.03528
1218.35955,0.03209
1216.86976,0.06839
1215.37997,0.07250
1213.89018,0.07898
1212.40039,0.08165
1210.91061,0.09500
1209.42082,0.07553
1207.93103,0.07506
1206.44124,0.07462
1204.95145,0.06973
1203.46166,0.05781
1201.97188,0.05723
1200.48209,0.06351
1198.99230,0.05273
1197.50251,0.05671
1196.01272,0.05132
1194.52293,0.05235
1193.03314,0.05341
1191.54336,0.06068
1190.05357,0.04856
1188.56378,0.02942
1187.07399,0.01330
1185.58420,0.00915
1184.09441,0.01696
1182.60463,0.02191
1181.11484,0.02689
1179.62505,0.01686
1178.13526,0.01324
1176.64547,0.01648
1175.15568,0.01761
1173.66589,0.01343
1172.17611,0.01141
1170.68632,0.01027
1169.19653,0.00915
1167.70674,0.01040
1166.21695,0.02533
1164.72716,0.03303
1163.23738,0.04396
1161.74759,0.04872
1160.25780,0.05223
1158.76801,0.05544
1157.27822,0.05868
1155.78843,0.08061
1154.29865,0.07760
1152.80886,0.08997
1151.31907,0.08637
1149.82928,0.09325
1148.33949,0.12682
1146.84970,0.13450
1145.35991,0.14219
1143.87013,0.13402
1142.38034,0.13099
1140.89055,0.13481
1139.40076,0.14826
1137.91097,0.16600
1136.42118,0.17545
1134.93140,0.19718
1133.44161,0.21894
1131.95182,0.24062
1130.46203,0.25165
1128.97224,0.26356
1127.48245,0.25715
1125.99266,0.23775
1124.50288,0.22263
1123.01309,0.22536
1121.52330,0.22811
1120.03351,0.24934
1118.54372,0.24393
1117.05393,0.25646
1115.56415,0.27414
1114.07436,0.24682
1112.58457,0.23638
1111.09478,0.22597
1109.60499,0.20256
1108.11520,0.21716
1106.62542,0.21642
1105.13563,0.22595
1103.64584,0.22846
1102.15605,0.21755
1100.66626,0.21200
1099.17647,0.20647
1097.68668,0.21143
1096.19690,0.20787
1094.70711,0.20668
1093.21732,0.20787
1091.72753,0.20268
1090.23774,0.19879
1088.74795,0.19493
1087.25817,0.19515
1085.76838,0.21480
1084.27859,0.19160
1082.78880,0.18186
1081.29901,0.19561
1079.80922,0.23649
1078.31943,0.23365
1076.82965,0.23083
1075.33986,0.24084
1073.85007,0.25451
1072.36028,0.25262
1070.87049,0.26441
1069.38070,0.30801
1067.89092,0.32412
1066.40113,0.34025
1064.91134,0.41401
1063.42155,0.49676
1061.93176,0.62306
1060.44197,0.71290
1058.95219,0.80767
1057.46240,0.85232
1055.97261,0.89700
1054.48282,0.98970
1052.99303,1.04467
1051.50324,1.07555
1050.01345,1.03008
1048.52367,1.02196
1047.03388,1.01451
1045.54409,1.00709
1044.05430,0.98709
1042.56451,0.91784
1041.07472,0.83155
1039.58494,0.73589
1038.09515,0.67503
1036.60536,0.63350
1035.11557,0.59200
1033.62578,0.51436
1032.13599,0.46021
1030.64620,0.39884
1029.15642,0.34132
1027.66663,0.30517
1026.17684,0.26904
1024.68705,0.23998
1023.19726,0.21777
1021.70747,0.19302
1020.21769,0.17982
1018.72790,0.15278
1017.23811,0.14539
1015.74832,0.13802
1014.25853,0.11830
1012.76874,0.11290
1011.27896,0.11286
1009.78917,0.12970
1008.29938,0.09792
1006.80959,0.08451
1005.31980,0.07112
1003.83001,0.04133
1002.34022,0.03973
1000.85044,0.04391
999.36065,0.06220
997.87086,0.06761
996.38107,0.07304
994.89128,0.09716
993.40149,0.10722
991.91171,0.13033
990.42192,0.13255
988.93213,0.15954
987.44234,0.15914
985.95255,0.15877
984.46276,0.16791
982.97297,0.15681
981.48319,0.11928
979.99340,0.09180
978.50361,0.08663
977.01382,0.08150
975.52403,0.06305
974.03424,0.05167
972.54446,0.02431
971.05467,0.02663
969.56488,0.01852
968.07509,0.01993
966.58530,0.02136
965.09551,0.00970
963.60573,0.01850
962.11594,0.02477
960.62615,0.03575
959.13636,0.02244
957.64657,0.00915
956.15678,0.01359
954.66699,0.01529
953.17721,0.02405
951.68742,0.04799
950.19763,0.03898
948.70784,0.03000
947.21805,0.04654
945.72826,0.07975
944.23848,0.09485
942.74869,0.10122
941.25890,0.11978
939.76911,0.11393
938.27932,0.10811
936.78953,0.13484
935.29974,0.16630
933.80996,0.18562
932.32017,0.19622
930.83038,0.20822
929.34059,0.22025
927.85080,0.26250
926.36101,0.28514
924.87123,0.30482
923.38144,0.32729
921.89165,0.34510
920.40186,0.36293
918.91207,0.45440
917.42228,0.63336
915.93250,0.81171
914.44271,1.00950
912.95292,1.11408
911.46313,1.21868
909.97334,1.44514
908.48355,1.63534
906.99376,1.82856
905.50398,1.92131
904.01419,1.92938
902.52440,1.93748
901.03461,2.00000
899.54482,1.97891
898.05503,1.86909
896.56525,1.65539
895.07546,1.53857
893.58567,1.42178
892.09588,1.14521
890.60609,0.86226
889.11630,0.65721
887.62651,0.47480
886.13673,0.41414
884.64694,0.35350
883.15715,0.26057
881.66736,0.20478
880.17757,0.13579
878.68778,0.12090
877.19800,0.10605
875.70821,0.05484
874.21842,0.05528
872.72863,0.04018
871.23884,0.03065
869.74905,0.03128
868.25927,0.03193
866.76948,0.03185
865.27969,0.04119
863.78990,0.06080
862.30011,0.05952
860.81032,0.07427
859.32053,0.08904
857.83075,0.08591
856.34096,0.10095
854.85117,0.11280
853.36138,0.14346
851.87159,0.15771
850.38180,0.17199
848.89202,0.15792
847.40223,0.18974
845.91244,0.22734
844.42265,0.23393
842.93286,0.24054
841.44307,0.24088
839.95329,0.27624
838.46350,0.28687
836.97371,0.31310
835.48392,0.31247
833.99413,0.31186
832.50434,0.28205
831.01455,0.28939
829.52477,0.28054
828.03498,0.25464
826.54519,0.23399
825.05540,0.21337
823.56561,0.19630
822.07582,0.16943
820.58604,0.15091
819.09625,0.16911
817.60646,0.18733
816.11667,0.17422
814.62688,0.16945
813.13709,0.15851
811.64730,0.15848
810.15752,0.17192
808.66773,0.18539
807.17794,0.16964
805.68815,0.16352
804.19836,0.17151
802.70857,0.16139
801.21879,0.15129
799.72900,0.17151
798.23921,0.16978
796.74942,0.16616
795.25963,0.17024
793.76984,0.17434
792.28006,0.17164
790.79027,0.18134
789.30048,0.21134
787.81069,0.23517
786.32090,0.25913
784.83111,0.28311
783.34132,0.34115
781.85154,0.36167
780.36175,0.38946
778.87196,0.39349
777.38217,0.39754
775.89238,0.45698
774.40259,0.46311
772.91281,0.45645
771.42302,0.43521
769.93323,0.41400
768.44344,0.39206
766.95365,0.31509
765.46386,0.26418
763.97407,0.21565
762.48429,0.20500
760.99450,0.19439
759.50471,0.15574
758.01492,0.11924
756.52513,0.12139
755.03534,0.11621
753.54556,0.11105
752.05577,0.08660
750.56598,0.06431
749.07619,0.05911
747.58640,0.06493
746.09661,0.07077
744.60683,0.05903
743.11704,0.06652
741.62725,0.04715
740.13746,0.04029
738.64767,0.03345
737.15788,0.01948
735.66809,0.02411
734.17831,0.01467
732.68852,0.01828
731.19873,0.02191
729.70894,0.02087
728.21915,0.01729
726.72936,0.02654
725.23958,0.00915
723.74979,0.01555
722.26000,0.02198
720.77021,0.02960
719.28042,0.01954
717.79063,0.01612
716.30084,0.01144
714.81106,0.00679
713.32127,0.00643
711.83148,0.02638
710.34169,0.03355
708.85190,0.03531
707.36211,0.03709
705.87233,0.04647
704.38254,0.05160
702.89275,0.05079
701.40296,0.05597
699.91317,0.06118
698.42338,0.06406
696.93360,0.08191
695.44381,0.08634
693.95402,0.09569
692.46423,0.10508
690.97444,0.13475
689.48465,0.17384
687.99486,0.19183
686.50508,0.19641
685.01529,0.20100
683.52550,0.21949
682.03571,0.21795
680.54592,0.23052
679.05613,0.23649
677.56635,0.24249
676.07656,0.27348
674.58677,0.27014
673.09698,0.25658
671.60719,0.23334
670.11740,0.21012
668.62761,0.17743
667.13783,0.15800
665.64804,0.14221
664.15825,0.12646
662.66846,0.13440
661.17867,0.08776
659.68888,0.07698
658.19910,0.06398
656.70931,0.05101
655.21952,0.04393
653.72973,0.05800
652.23994,0.06974
650.75015,0.06605
649.26037,0.06237
647.77058,0.04773
646.28079,0.05232
644.79100,0.05416
643.30121,0.05666
641.81142,0.05919
640.32163,0.04211
638.83185,0.04853
637.34206,0.04473
635.85227,0.03199
634.36248,0.01927
632.87269,0.00915
631.38290,0.01772
629.89312,0.02141
628.40333,0.02097
626.91354,0.02055
625.42375,0.02901
623.93396,0.03450
622.44417,0.04248
620.95438,0.05047
619.46460,0.05690
617.97481,0.06953
616.48502,0.09542
614.99523,0.10426
613.50544,0.11313
612.01565,0.13695
610.52587,0.18619
609.03608,0.20473
607.54629,0.22500
606.05650,0.24530
604.56671,0.28162
603.07692,0.32693
601.58714,0.35092
600.09735,0.37494
598.60756,0.39387
597.11777,0.43586
595.62798,0.45334
594.13819,0.42582
592.64840,0.39833
591.15862,0.37513
589.66883,0.33125
588.17904,0.29189
586.68925,0.26204
585.19946,0.23221
583.70967,0.19612
582.21989,0.15194
580.73010,0.12742
579.24031,0.10292
577.75052,0.08420
576.26073,0.06338
574.77094,0.07394
573.28115,0.06917
571.79137,0.06442
570.30158,0.07463
568.81179,0.10577
567.32200,0.10920
565.83221,0.11265
564.34242,0.12467
562.85264,0.14929
561.36285,0.16818
559.87306,0.17387
558.38327,0.17958
556.89348,0.19897
555.40369,0.19150
553.91391,0.19750
552.42412,0.20352
550.93433,0.21916
549.44454,0.24657
547.95475,0.25821
546.46496,0.26656
544.97517,0.27495
543.48539,0.28965
541.99560,0.29114
540.50581,0.31091
539.01602,0.33069
537.52623,0.35872
536.03644,0.41536
534.54666,0.44663
533.05687,0.46289
531.56708,0.47917
530.07729,0.51969
528.58750,0.58179
527.09771,0.61255
525.60792,0.64333
524.11814,0.70997
522.62835,0.75937
521.13856,0.82158
519.64877,0.83656
518.15898,0.85157
516.66919,0.86884
515.17941,0.90150
513.68962,0.89332
512.19983,0.88517
510.71004,0.89229
509.22025,0.80941
507.73046,0.71182
506.24068,0.66781
504.75089,0.62383
503.26110,0.51885
501.77131,0.42819
500.28152,0.38705
498.79173,0.34594
497.30194,0.24639
495.81216,0.18292
494.32237,0.17570
492.83258,0.16850
491.34279,0.13071
489.85300,0.11002
488.36321,0.08550
486.87343,0.07819
485.38364,0.07090
483.89385,0.08422
482.40406,0.11912
480.91427,0.12790
479.42448,0.13671
477.93469,0.18022
476.44491,0.15696
474.95512,0.16457
473.46533,0.17219
471.97554,0.21366
470.48575,0.23531
468.99596,0.22349
467.50618,0.22492
466.01639,0.22637
464.52660,0.17429
463.03681,0.12288
461.54702,0.11054
460.05723,0.09822
458.56745,0.05926
457.07766,0.07174
455.58787,0.05757
454.09808,0.04343
452.60829,0.04169
451.11850,0.03634
449.62871,0.02985
448.13893,0.02338
446.64914,0.00915
445.15935,0.02121
443.66956,0.02093
442.17977,0.02537
440.68998,0.02983
439.20020,0.01639
437.71041,0.05887
436.22062,0.05871
434.73083,0.05857
433.24104,0.04545
431.75125,0.04834
430.26146,0.05543
428.77168,0.06254
427.28189,0.05590
425.79210,0.05058
424.30231,0.04912
422.81252,0.04768
421.32273,0.03347
419.83295,0.03507
418.34316,0.03861
416.85337,0.04218
415.36358,0.05046
413.87379,0.05515
412.38400,0.05111
410.89422,0.04709
409.40443,0.04502
407.91464,0.05214
406.42485,0.05055
404.93506,0.04183
403.44527,0.03313
401.95548,0.04484
400.46570,0.03395
398.97591,0.03013
397.48612,0.02633
395.99633,0.03404
394.50654,0.03004
393.01675,0.03119
391.52697,0.02855
390.03718,0.03554
388.54739,0.03659
387.05760,0.03392
385.56781,0.03128
384.07802,0.03197
382.58824,0.03652
381.09845,0.02595
379.60866,0.01540
378.11887,0.00915
376.62908,0.01034
375.13929,0.02128
373.64950,0.03223
372.15972,0.03415
370.66993,0.04312
369.18014,0.03975
367.69035,0.03640
366.20056,0.04118
364.71077,0.02572
363.22099,0.04090
361.73120,0.05610
360.24141,0.05202
358.75162,0.04433
357.26183,0.03945
355.77204,0.03458
354.28225,0.06154
352.79247,0.05885
351.30268,0.06217
349.81289,0.06551
348.32310,0.09896
346.83331,0.09915
345.34352,0.10374
343.85374,0.10836
342.36395,0.08067
340.87416,0.06965
339.38437,0.04713
337.89458,0.02464
336.40479,0.02494
334.91501,0.02570
333.42522,0.02105
331.93543,0.01642
330.44564,0.02301
328.95585,0.00915
327.46606,0.02955
325.97627,0.04997
324.48649,0.04909
322.99670,0.06721
321.50691,0.06062
320.01712,0.05404
318.52733,0.05709
317.03754,0.06230
315.54776,0.06924
314.05797,0.07621
312.56818,0.09301
311.07839,0.09064
309.58860,0.09799
308.09881,0.10538
306.60902,0.10329
305.11924,0.09205
303.62945,0.07273
302.13966,0.05343
300.64987,0.03842
299.16008,0.00915
