1778.52000,0.00646
1777.03021,0.01125
1775.54042,0.00238
1774.05063,0.00794
1772.56085,0.00655
1771.07106,0.01288
1769.58127,0.00386
1768.09148,0.00471
1766.60169,0.00655
1765.11190,0.00241
1763.62212,0.00694
1762.13233,0.01221
1760.64254,0.00934
1759.15275,0.01419
1757.66296,0.00920
1756.17317,0.00569
1754.68339,0.00460
1753.19360,0.01026
1751.70381,0.00969
1750.21402,0.00940
1748.72423,0.00624
1747.23444,0.00792
1745.74465,0.00241
1744.25487,0.01469
1742.76508,0.00873
1741.27529,0.00640
1739.78550,0.00770
1738.29571,0.01155
1736.80592,0.01710
1735.31614,0.01379
1733.82635,0.00402
1732.33656,0.00844
1730.84677,0.00785
1729.35698,0.00920
1727.86719,0.01394
1726.37740,0.00308
1724.88762,0.00743
1723.39783,0.00436
1721.90804,0.00563
1720.41825,0.00453
1718.92846,0.00850
1717.43867,0.01441
1715.94889,0.01722
1714.45910,0.01333
1712.96931,0.01307
1711.47952,0.00034
1709.98973,0.00494
1708.49994,0.00907
1707.01016,0.00867
1705.52037,0.00829
1704.03058,0.00241
1702.54079,0.01117
1701.05100,0.01250
1699.56121,0.00930
1698.07142,0.01500
1696.58164,0.01785
1695.09185,0.02577
1693.60206,0.01714
1692.11227,0.01934
1690.62248,0.02541
1689.13269,0.02189
1687.64291,0.02393
1686.15312,0.03151
1684.66333,0.02591
1683.17354,0.03186
1681.68375,0.03014
1680.19396,0.03927
1678.70417,0.03376
1677.21439,0.03644
1675.72460,0.04396
1674.23481,0.04813
1672.74502,0.04152
1671.25523,0.04887
1669.76544,0.06561
1668.27566,0.07324
1666.78587,0.06193
1665.29608,0.05688
1663.80629,0.07059
1662.31650,0.08337
1660.82671,0.06903
1659.33693,0.08233
1657.84714,0.09038
1656.35735,0.07034
1654.86756,0.07604
1653.37777,0.07166
1651.88798,0.07212
1650.39819,0.07981
1648.90841,0.09305
1647.41862,0.08613
1645.92883,0.08512
1644.43904,0.08414
1642.94925,0.08882
1641.45946,0.09906
1639.96968,0.09659
1638.47989,0.08885
1636.99010,0.09412
1635.50031,0.08836
1634.01052,0.10592
1632.52073,0.09132
1631.03094,0.11061
1629.54116,0.09654
1628.05137,0.09210
1626.56158,0.08937
1625.07179,0.06336
1623.58200,0.06067
1622.09221,0.08324
1620.60243,0.08421
1619.11264,0.09649
1617.62285,0.09246
1616.13306,0.09446
1614.64327,0.08736
1613.15348,0.08725
1611.66370,0.08524
1610.17391,0.08926
1608.68412,0.08922
1607.19433,0.11371
1605.70454,0.10435
1604.21475,0.09513
1602.72496,0.08594
1601.23518,0.06681
1599.74539,0.08758
1598.25560,0.08338
1596.76581,0.08018
1595.27602,0.09141
1593.78623,0.08969
1592.29645,0.08632
1590.80666,0.07600
1589.31687,0.07724
1587.82708,0.07297
1586.33729,0.07186
1584.84750,0.07701
1583.35771,0.08508
1581.86793,0.08620
1580.37814,0.08662
1578.88835,0.06905
1577.39856,0.07241
1575.90877,0.06402
1574.41898,0.05781
1572.92920,0.06172
1571.43941,0.05460
1569.94962,0.05315
1568.45983,0.05173
1566.97004,0.03724
1565.48025,0.03310
1563.99047,0.02539
1562.50068,0.02346
1561.01089,0.02444
1559.52110,0.04154
1558.03131,0.02455
1556.54152,0.01191
1555.05173,0.01419
1553.56195,0.02875
1552.07216,0.02627
1550.58237,0.02213
1549.09258,0.01947
1547.60279,0.00241
1546.11300,0.00386
1544.62322,0.00774
1543.13343,0.02221
1541.64364,0.01653
1540.15385,0.01364
1538.66406,0.01076
1537.17427,0.01813
1535.68448,0.01711
1534.19470,0.02308
1532.70491,0.00241
1531.21512,0.00948
1529.72533,0.02210
1528.23554,0.03571
1526.74575,0.02507
1525.25597,0.04377
1523.76618,0.03223
1522.27639,0.04665
1520.78660,0.03780
1519.29681,0.05851
1517.80702,0.03722
1516.31724,0.04237
1514.82745,0.04274
1513.33766,0.04194
1511.84787,0.04116
1510.35808,0.04593
1508.86829,0.04712
1507.37850,0.04689
1505.88872,0.06302
1504.39893,0.05828
1502.90914,0.05188
1501.41935,0.05079
1499.92956,0.06101
1498.43977,0.06814
1496.94999,0.08058
1495.46020,0.08415
1493.97041,0.10432
1492.48062,0.09905
1490.99083,0.12984
1489.50104,0.12630
1488.01125,0.13828
1486.52147,0.15029
1485.03168,0.15259
1483.54189,0.18734
1482.05210,0.19666
1480.56231,0.22281
1479.07252,0.22857
1477.58274,0.25045
1476.09295,0.24329
1474.60316,0.25729
1473.11337,0.26699
1471.62358,0.27480
1470.13379,0.26845
1468.64401,0.27727
1467.15422,0.31133
1465.66443,0.32824
1464.17464,0.34517
1462.68485,0.36273
1461.19506,0.40602
1459.70527,0.45317
1458.21549,0.48066
1456.72570,0.54155
1455.23591,0.60127
1453.74612,0.67134
1452.25633,0.68547
1450.76654,0.72749
1449.27676,0.72172
1447.78697,0.70229
1446.29718,0.70402
1444.80739,0.68176
1443.31760,0.65952
1441.82781,0.63898
1440.33802,0.57619
1438.84824,0.53168
1437.35845,0.50425
1435.86866,0.47445
1434.37887,0.50688
1432.88908,0.54246
1431.39929,0.56870
1429.90951,0.62547
1428.41972,0.67722
1426.92993,0.78497
1425.44014,0.81803
1423.95035,0.84595
1422.46056,0.87390
1420.97078,0.90679
1419.48099,0.94355
1417.99120,0.96497
1416.50141,0.96887
1415.01162,0.88727
1413.52183,0.85182
1412.03204,0.78325
1410.54226,0.73224
1409.05247,0.63945
1407.56268,0.60122
1406.07289,0.52337
1404.58310,0.50081
1403.09331,0.47826
1401.60353,0.43388
1400.11374,0.37295
1398.62395,0.32645
1397.13416,0.29248
1395.64437,0.24747
1394.15458,0.21186
1392.66479,0.18780
1391.17501,0.15152
1389.68522,0.12271
1388.19543,0.10449
1386.70564,0.09182
1385.21585,0.07918
1383.72606,0.04734
1382.23628,0.02898
1380.74649,0.02025
1379.25670,0.03101
1377.76691,0.00960
1376.27712,0.00479
1374.78733,0.00000
1373.29755,0.00899
1371.80776,0.00766
1370.31797,0.01454
1368.82818,0.00846
1367.33839,0.00241
1365.84860,0.02899
1364.35881,0.02772
1362.86903,0.02960
1361.37924,0.05049
1359.88945,0.08293
1358.39966,0.09713
1356.90987,0.15340
1355.42008,0.20826
1353.93030,0.24151
1352.44051,0.27119
1350.95072,0.30090
1349.46093,0.38467
1347.97114,0.45863
1346.48135,0.51266
1344.99156,0.58546
1343.50178,0.65589
1342.01199,0.71288
1340.52220,0.75813
1339.03241,0.78178
1337.54262,0.83788
1336.05283,0.87612
1334.56305,0.91438
1333.07326,0.97176
1331.58347,0.97727
1330.09368,0.94150
1328.60389,0.86250
1327.11410,0.86473
1325.62432,0.87635
1324.13453,0.89232
1322.64474,0.83504
1321.15495,0.77539
1319.66516,0.73258
1318.17537,0.68979
1316.68558,0.65759
1315.19580,0.62566
1313.70601,0.59015
1312.21622,0.55226
1310.72643,0.51152
1309.23664,0.48881
1307.74685,0.45677
1306.25707,0.41153
1304.76728,0.38289
1303.27749,0.35428
1301.78770,0.33098
1300.29791,0.29761
1298.80812,0.25345
1297.31834,0.22254
1295.82855,0.17074
1294.33876,0.15645
1292.84897,0.12176
1291.35918,0.10776
1289.86939,0.10146
1288.37960,0.09519
1286.88982,0.08270
1285.40003,0.09786
1283.91024,0.10344
1282.42045,0.10087
1280.93066,0.08439
1279.44087,0.07899
1277.95109,0.05175
1276.46130,0.04832
1274.97151,0.04275
1273.48172,0.03721
1271.99193,0.03817
1270.50214,0.04036
1269.01235,0.02672
1267.52257,0.03377
1266.03278,0.02594
1264.54299,0.01286
1263.05320,0.01445
1261.56341,0.01618
1260.07362,0.01794
1258.58384,0.01769
1257.09405,0.01962
1255.60426,0.00860
1254.11447,0.00241
1252.62468,0.03028
1251.13489,0.01926
1249.64511,0.01234
1248.15532,0.01482
1246.66553,0.02165
1245.17574,0.02850
1243.68595,0.01784
1242.19616,0.00912
1240.70637,0.02085
1239.21659,0.01771
1237.72680,0.01747
1236.23701,0.02880
1234.74722,0.03005
1233.25743,0.01944
1231.76764,0.00885
1230.27786,0.01643
1228.78807,0.00241
1227.29828,0.01153
1225.80849,0.02739
1224.31870,0.04472
1222.82891,0.05031
1221.33912,0.03814
1219.84934,0.05002
1218.35955,0.06193
1216.86976,0.03806
1215.37997,0.06467
1213.89018,0.06632
1212.40039,0.06775
1210.91061,0.08194
1209.42082,0.06108
1207.93103,0.06018
1206.44124,0.05931
1204.95145,0.04717
1203.46166,0.06148
1201.97188,0.06669
1200.48209,0.07480
1198.99230,0.05748
1197.50251,0.04930
1196.01272,0.06734
1194.52293,0.05453
1193.03314,0.04174
1191.54336,0.04183
1190.05357,0.02057
1188.56378,0.01302
1187.07399,0.01871
1185.58420,0.03091
1184.09441,0.02296
1182.60463,0.02344
1181.11484,0.02394
1179.62505,0.02374
1178.13526,0.01829
1176.64547,0.01646
1175.15568,0.00241
1173.66589,0.01008
1172.17611,0.01034
1170.68632,0.00833
1169.19653,0.00635
1167.70674,0.01292
1166.21695,0.03153
1164.72716,0.02398
1163.23738,0.01981
1161.74759,0.03056
1160.25780,0.06080
1158.76801,0.06259
1157.27822,0.06441
1155.78843,0.08871
1154.29865,0.08421
1152.80886,0.06988
1151.31907,0.07937
1149.82928,0.09752
1148.33949,0.12723
1146.84970,0.12778
1145.35991,0.12835
1143.87013,0.11297
1142.38034,0.12644
1140.89055,0.12047
1139.40076,0.14793
1137.91097,0.17012
1136.42118,0.16687
1134.93140,0.19440
1133.44161,0.22195
1131.95182,0.21061
1130.46203,0.23436
1128.97224,0.24037
1127.48245,0.23991
1125.99266,0.21641
1124.50288,0.22513
1123.01309,0.22378
1121.52330,0.22246
1120.03351,0.23245
1118.54372,0.23959
1117.05393,0.22176
1115.56415,0.22222
1114.07436,0.21069
1112.58457,0.20867
1111.09478,0.20668
1109.60499,0.19619
1108.11520,0.20998
1106.62542,0.20578
1105.13563,0.22130
1103.64584,0.19096
1102.15605,0.20100
1100.66626,0.18621
1099.17647,0.17144
1097.68668,0.18828
1096.19690,0.18425
1094.70711,0.20379
1093.21732,0.17963
1091.72753,0.18696
1090.23774,0.18699
1088.74795,0.18704
1087.25817,0.18268
1085.76838,0.16296
1084.27859,0.19132
1082.78880,0.17982
1081.29901,0.19092
1079.80922,0.17851
1078.31943,0.18750
1076.82965,0.19652
1075.33986,0.21013
1073.85007,0.21079
1072.36028,0.22997
1070.87049,0.23596
1069.38070,0.27104
1067.89092,0.29918
1066.40113,0.32735
1064.91134,0.37379
1063.42155,0.47335
1061.93176,0.55900
1060.44197,0.62738
1058.95219,0.70059
1057.46240,0.74163
1055.97261,0.78270
1054.48282,0.88673
1052.99303,0.95547
1051.50324,0.97811
1050.01345,0.98084
1048.52367,0.98480
1047.03388,0.97713
1045.54409,0.96948
1044.05430,0.93891
1042.56451,0.86489
1041.07472,0.80123
1039.58494,0.69939
1038.09515,0.60647
1036.60536,0.56413
1035.11557,0.52182
1033.62578,0.48086
1032.13599,0.41037
1030.64620,0.37186
1029.15642,0.30334
1027.66663,0.27160
1026.17684,0.23989
1024.68705,0.21925
1023.19726,0.19551
1021.70747,0.16195
1020.21769,0.13058
1018.72790,0.13502
1017.23811,0.12627
1015.74832,0.11755
1014.25853,0.10333
1012.76874,0.08913
1011.27896,0.10474
1009.78917,0.08170
1008.29938,0.06662
1006.80959,0.04903
1005.31980,0.03147
1003.83001,0.02967
1002.34022,0.01564
1000.85044,0.03551
999.36065,0.03402
997.87086,0.03520
996.38107,0.03640
994.89128,0.05805
993.40149,0.07324
991.91171,0.09157
990.42192,0.10536
988.93213,0.11725
987.44234,0.11896
985.95255,0.12070
984.46276,0.12642
982.97297,0.13553
981.48319,0.10503
979.99340,0.08536
978.50361,0.07376
977.01382,0.06219
975.52403,0.04764
974.03424,0.04176
972.54446,0.02077
971.05467,0.01614
969.56488,0.00241
968.07509,0.00500
966.58530,0.00761
965.09551,0.00281
963.60573,0.00811
962.11594,0.02521
960.62615,0.02096
959.13636,0.01901
957.64657,0.01708
956.15678,0.00113
954.66699,0.02893
953.17721,0.04090
951.68742,0.02791
950.19763,0.03092
948.70784,0.03396
947.21805,0.05347
945.72826,0.06796
944.23848,0.08320
942.74869,0.09774
941.25890,0.11015
939.76911,0.11453
938.27932,0.11893
936.78953,0.14078
935.29974,0.16962
933.80996,0.17830
932.32017,0.23913
930.83038,0.23525
929.34059,0.23140
927.85080,0.25675
926.36101,0.27300
924.87123,0.31955
923.38144,0.35362
921.89165,0.38664
920.40186,0.41969
918.91207,0.51893
917.42228,0.67418
915.93250,0.83762
914.44271,1.00756
912.95292,1.12349
911.46313,1.23943
909.97334,1.45005
908.48355,1.67246
906.99376,1.83605
905.50398,1.94152
904.01419,1.97075
902.52440,2.00000
901.03461,1.99288
899.54482,1.95432
898.05503,1.83987
896.56525,1.66107
895.07546,1.52253
893.58567,1.38401
892.09588,1.10415
890.60609,0.89878
889.11630,0.67542
887.62651,0.49484
886.13673,0.43752
884.64694,0.38023
883.15715,0.27611
881.66736,0.21382
880.17757,0.14098
878.68778,0.12594
877.19800,0.11093
875.70821,0.10639
874.21842,0.05142
872.72863,0.04813
871.23884,0.03646
869.74905,0.03790
868.25927,0.03936
866.76948,0.03617
865.27969,0.03780
863.78990,0.05892
862.30011,0.08343
860.81032,0.07901
859.32053,0.07461
857.83075,0.10111
856.34096,0.12187
854.85117,0.14337
853.36138,0.14617
851.87159,0.16123
850.38180,0.17632
848.89202,0.19528
847.40223,0.21883
845.91244,0.22798
844.42265,0.24401
842.93286,0.26007
841.44307,0.27650
839.95329,0.27567
838.46350,0.28207
836.97371,0.29329
835.48392,0.30598
833.99413,0.31870
832.50434,0.30742
831.01455,0.28319
829.52477,0.27868
828.03498,0.24345
826.54519,0.22482
825.05540,0.20621
823.56561,0.21357
822.07582,0.17411
820.58604,0.16110
819.09625,0.16914
817.60646,0.17720
816.11667,0.14168
814.62688,0.15231
813.13709,0.14471
811.64730,0.15226
810.15752,0.15516
808.66773,0.15808
807.17794,0.16114
805.68815,0.16423
804.19836,0.16062
802.70857,0.16580
801.21879,0.17100
799.72900,0.17875
798.23921,0.16370
796.74942,0.16141
795.25963,0.16335
793.76984,0.16532
792.28006,0.15133
790.79027,0.16979
789.30048,0.17819
787.81069,0.23346
786.32090,0.24888
784.83111,0.26432
783.34132,0.30405
781.85154,0.32482
780.36175,0.37901
778.87196,0.38602
777.38217,0.39306
775.89238,0.44011
774.40259,0.44732
772.91281,0.44013
771.42302,0.43153
769.93323,0.42295
768.44344,0.36107
766.95365,0.30137
765.46386,0.25875
763.97407,0.21688
762.48429,0.19533
760.99450,0.17381
759.50471,0.13681
758.01492,0.12122
756.52513,0.10830
755.03534,0.09900
753.54556,0.08973
752.05577,0.08865
750.56598,0.07799
749.07619,0.06134
747.58640,0.05409
746.09661,0.04686
744.60683,0.04495
743.11704,0.04185
741.62725,0.01404
740.13746,0.01555
738.64767,0.01710
737.15788,0.01794
735.66809,0.02193
734.17831,0.00241
732.68852,0.01000
731.19873,0.01761
729.70894,0.00939
728.21915,0.01465
726.72936,0.00336
725.23958,0.00517
723.74979,0.00748
722.26000,0.00981
720.77021,0.01866
719.28042,0.02032
717.79063,0.00496
716.30084,0.00258
714.81106,0.00024
713.32127,0.01825
711.83148,0.02428
710.34169,0.02336
708.85190,0.02380
707.36211,0.02425
705.87233,0.03206
704.38254,0.04037
702.89275,0.05135
701.40296,0.04926
699.91317,0.04719
698.42338,0.05368
696.93360,0.07509
695.44381,0.08258
693.95402,0.09239
692.46423,0.10221
690.97444,0.13693
689.48465,0.14356
687.99486,0.14662
686.50508,0.16099
685.01529,0.17538
683.52550,0.19917
682.03571,0.21121
680.54592,0.22255
679.05613,0.22959
677.56635,0.23666
676.07656,0.26586
674.58677,0.24583
673.09698,0.20468
671.60719,0.19756
670.11740,0.19045
668.62761,0.16908
667.13783,0.15950
665.64804,0.14515
664.15825,0.13082
662.66846,0.09080
661.17867,0.06859
659.68888,0.06202
658.19910,0.05055
656.70931,0.03910
655.21952,0.03524
653.72973,0.05447
652.23994,0.04610
650.75015,0.05360
649.26037,0.06114
647.77058,0.04010
646.28079,0.03375
644.79100,0.03175
643.30121,0.03205
641.81142,0.03237
640.32163,0.01963
638.83185,0.03862
637.34206,0.01824
635.85227,0.01386
634.36248,0.00950
632.87269,0.00241
631.38290,0.00573
629.89312,0.01485
628.40333,0.01846
626.91354,0.02210
625.42375,0.00606
623.93396,0.00182
622.44417,0.01165
620.95438,0.02152
619.46460,0.04449
617.97481,0.03602
616.48502,0.06121
614.99523,0.07501
613.50544,0.08884
612.01565,0.13836
610.52587,0.15187
609.03608,0.20697
607.54629,0.22222
606.05650,0.23748
604.56671,0.27560
603.07692,0.32935
601.58714,0.35370
600.09735,0.37807
598.60756,0.40908
597.11777,0.41104
595.62798,0.43513
594.13819,0.41059
592.64840,0.38609
591.15862,0.39559
589.66883,0.31360
588.17904,0.26982
586.68925,0.24409
585.19946,0.21838
583.70967,0.17492
582.21989,0.13941
580.73010,0.11582
579.24031,0.09225
577.75052,0.07939
576.26073,0.07473
574.77094,0.07658
573.28115,0.05731
571.79137,0.03806
570.30158,0.04671
568.81179,0.06907
567.32200,0.08353
565.83221,0.09802
564.34242,0.13126
562.85264,0.17030
561.36285,0.17140
559.87306,0.18094
558.38327,0.19050
556.89348,0.19793
555.40369,0.20177
553.91391,0.20660
552.42412,0.21146
550.93433,0.22426
549.44454,0.24166
547.95475,0.23938
546.46496,0.23976
544.97517,0.24018
543.48539,0.27641
541.99560,0.25669
540.50581,0.28996
539.01602,0.32326
537.52623,0.37064
536.03644,0.37936
534.54666,0.42487
533.05687,0.44625
531.56708,0.46766
530.07729,0.52309
528.58750,0.57157
527.09771,0.60267
525.60792,0.63378
524.11814,0.67778
522.62835,0.70858
521.13856,0.77832
519.64877,0.80041
518.15898,0.82252
516.66919,0.86904
515.17941,0.87234
513.68962,0.87302
512.19983,0.87373
510.71004,0.83146
509.22025,0.76615
507.73046,0.69150
506.24068,0.64258
504.75089,0.59369
503.26110,0.50133
501.77131,0.40276
500.28152,0.36234
498.79173,0.32195
497.30194,0.22585
495.81216,0.20160
494.32237,0.17522
492.83258,0.14886
491.34279,0.11699
489.85300,0.08227
488.36321,0.06367
486.87343,0.06479
485.38364,0.06594
483.89385,0.09401
482.40406,0.11202
480.91427,0.11588
479.42448,0.11977
477.93469,0.16548
476.44491,0.15788
474.95512,0.17169
473.46533,0.18552
471.97554,0.21091
470.48575,0.20893
468.99596,0.21131
467.50618,0.20109
466.01639,0.19090
464.52660,0.15492
463.03681,0.11943
461.54702,0.09550
460.05723,0.07160
458.56745,0.05901
457.07766,0.03828
455.58787,0.03450
454.09808,0.03076
452.60829,0.03220
451.11850,0.02237
449.62871,0.01713
448.13893,0.01192
446.64914,0.00241
445.15935,0.00179
443.66956,0.02282
442.17977,0.02946
440.68998,0.03612
439.20020,0.04329
437.71041,0.03319
436.22062,0.03644
434.73083,0.03972
433.24104,0.02560
431.75125,0.02881
430.26146,0.04045
428.77168,0.05211
427.28189,0.03858
425.79210,0.01954
424.30231,0.01134
422.81252,0.00316
421.32273,0.01830
419.83295,0.03900
418.34316,0.02585
416.85337,0.01273
415.36358,0.02629
413.87379,0.02955
412.38400,0.03427
410.89422,0.03902
409.40443,0.03298
407.91464,0.02336
406.42485,0.02050
404.93506,0.03303
403.44527,0.04559
401.95548,0.02670
400.46570,0.03618
398.97591,0.03500
397.48612,0.03384
395.99633,0.02033
394.50654,0.01766
393.01675,0.02150
391.52697,0.02251
390.03718,0.01802
388.54739,0.03758
387.05760,0.03662
385.56781,0.03569
384.07802,0.03538
382.58824,0.01660
381.09845,0.00949
379.60866,0.00241
378.11887,0.01972
376.62908,0.01471
375.13929,0.01801
373.64950,0.02133
372.15972,0.02288
370.66993,0.03310
369.18014,0.02462
367.69035,0.01615
366.20056,0.04194
364.71077,0.04926
363.22099,0.04904
361.73120,0.04884
360.24141,0.05911
358.75162,0.05211
357.26183,0.03878
355.77204,0.02546
354.28225,0.04160
352.79247,0.07361
351.30268,0.08367
349.81289,0.09376
348.32310,0.08837
346.83331,0.07124
345.34352,0.07095
343.85374,0.07068
342.36395,0.04858
340.87416,0.02674
339.38437,0.01933
337.89458,0.01194
336.40479,0.01792
334.91501,0.01959
333.42522,0.01504
331.93543,0.01051
330.44564,0.00241
328.95585,0.02368
327.46606,0.03514
325.97627,0.04661
324.48649,0.03144
322.99670,0.01991
321.50691,0.01473
320.01712,0.00957
318.52733,0.05608
317.03754,0.05818
315.54776,0.06318
314.05797,0.06821
312.56818,0.09969
311.07839,0.11966
309.58860,0.09966
308.09881,0.07968
306.60902,0.05937
305.11924,0.04149
303.62945,0.03600
302.13966,0.03053
300.64987,0.00335
299.16008,0.00241
