1778.52000,0.00327
1777.03021,0.00423
1775.54042,0.00406
1774.05063,0.00000
1772.56085,0.00771
1771.07106,0.02443
1769.58127,0.02090
1768.09148,0.01832
1766.60169,0.01692
1765.11190,0.01023
1763.62212,0.01302
1762.13233,0.02482
1760.64254,0.01821
1759.15275,0.01739
1757.66296,0.01198
1756.17317,0.01167
1754.68339,0.02151
1753.19360,0.01917
1751.70381,0.01893
1750.21402,0.02101
1748.72423,0.01391
1747.23444,0.02618
1745.74465,0.01198
1744.25487,0.02248
1742.76508,0.01434
1741.27529,0.02258
1739.78550,0.02025
1738.29571,0.03038
1736.80592,0.02579
1735.31614,0.02928
1733.82635,0.01714
1732.33656,0.01907
1730.84677,0.01297
1729.35698,0.02186
1727.86719,0.01028
1726.37740,0.01876
1724.88762,0.01091
1723.39783,0.01179
1721.90804,0.01845
1720.41825,0.01453
1718.92846,0.02147
1717.43867,0.01599
1715.94889,0.02229
1714.45910,0.03460
1712.96931,0.02643
1711.47952,0.03188
1709.98973,0.02606
1708.49994,0.01981
1707.01016,0.01588
1705.52037,0.01198
1704.03058,0.01955
1702.54079,0.02484
1701.05100,0.02901
1699.56121,0.02928
1698.07142,0.03303
1696.58164,0.02436
1695.09185,0.04475
1693.60206,0.03844
1692.11227,0.03607
1690.62248,0.03142
1689.13269,0.03670
1687.64291,0.04315
1686.15312,0.04410
1684.66333,0.04508
1683.17354,0.05621
1681.68375,0.04572
1680.19396,0.04930
1678.70417,0.04945
1677.21439,0.05584
1675.72460,0.06318
1674.23481,0.04889
1672.74502,0.05421
1671.25523,0.06415
1669.76544,0.07182
1668.27566,0.08481
1666.78587,0.07410
1665.29608,0.07377
1663.80629,0.08822
1662.31650,0.10131
1660.82671,0.09507
1659.33693,0.10129
1657.84714,0.08980
1656.35735,0.08433
1654.86756,0.09661
1653.37777,0.08681
1651.88798,0.08739
1650.39819,0.07787
1648.90841,0.08449
1647.41862,0.09091
1645.92883,0.09401
1644.43904,0.09714
1642.94925,0.09626
1641.45946,0.09310
1639.96968,0.07891
1638.47989,0.10344
1636.99010,0.09091
1635.50031,0.08347
1634.01052,0.09609
1632.52073,0.08870
1631.03094,0.09907
1629.54116,0.09818
1628.05137,0.10745
1626.56158,0.07919
1625.07179,0.08528
1623.58200,0.08678
1622.09221,0.08809
1620.60243,0.09817
1619.11264,0.11403
1617.62285,0.09744
1616.13306,0.10644
1614.64327,0.10325
1613.15348,0.10240
1611.66370,0.09811
1610.17391,0.10375
1608.68412,0.11149
1607.19433,0.11534
1605.70454,0.11691
1604.21475,0.10560
1602.72496,0.09431
1601.23518,0.09549
1599.74539,0.10153
1598.25560,0.10391
1596.76581,0.09895
1595.27602,0.11290
1593.78623,0.09116
1592.29645,0.09271
1590.80666,0.09291
1589.31687,0.08761
1587.82708,0.08716
1586.33729,0.08904
1584.84750,0.11100
1583.35771,0.09980
1581.86793,0.09576
1580.37814,0.08323
1578.88835,0.08546
1577.39856,0.07712
1575.90877,0.06996
1574.41898,0.08448
1572.92920,0.07368
1571.43941,0.07511
1569.94962,0.06793
1568.45983,0.06078
1566.97004,0.05422
1565.48025,0.03917
1563.99047,0.03727
1562.50068,0.03009
1561.01089,0.05496
1559.52110,0.05291
1558.03131,0.04281
1556.54152,0.04103
1555.05173,0.04250
1553.56195,0.03432
1552.07216,0.03838
1550.58237,0.04407
1549.09258,0.03043
1547.60279,0.02281
1546.11300,0.01198
1544.62322,0.02699
1543.13343,0.02612
1541.64364,0.04071
1540.15385,0.03091
1538.66406,0.02113
1537.17427,0.03234
1535.68448,0.02699
1534.19470,0.02535
1532.70491,0.01198
1531.21512,0.02921
1529.72533,0.03701
1528.23554,0.04207
1526.74575,0.05269
1525.25597,0.04767
1523.76618,0.06570
1522.27639,0.05681
1520.78660,0.06038
1519.29681,0.04808
1517.80702,0.04641
1516.31724,0.04636
1514.82745,0.05372
1513.33766,0.05787
1511.84787,0.06205
1510.35808,0.06579
1508.86829,0.06864
1507.37850,0.06851
1505.88872,0.06588
1504.39893,0.06096
1502.90914,0.06390
1501.41935,0.07125
1499.92956,0.08161
1498.43977,0.08278
1496.94999,0.10079
1495.46020,0.10201
1493.97041,0.12399
1492.48062,0.11581
1490.99083,0.13277
1489.50104,0.13109
1488.01125,0.13739
1486.52147,0.14370
1485.03168,0.16099
1483.54189,0.18130
1482.05210,0.18020
1480.56231,0.21092
1479.07252,0.21494
1477.58274,0.23718
1476.09295,0.24747
1474.60316,0.27161
1473.11337,0.27458
1471.62358,0.30176
1470.13379,0.27321
1468.64401,0.29721
1467.15422,0.30304
1465.66443,0.31592
1464.17464,0.32882
1462.68485,0.36513
1461.19506,0.40284
1459.70527,0.42561
1458.21549,0.49540
1456.72570,0.54586
1455.23591,0.59934
1453.74612,0.65215
1452.25633,0.69923
1450.76654,0.72790
1449.27676,0.77456
1447.78697,0.75076
1446.29718,0.74564
1444.80739,0.73201
1443.31760,0.71842
1441.82781,0.66913
1440.33802,0.58647
1438.84824,0.54599
1437.35845,0.53410
1435.86866,0.51095
1434.37887,0.54104
1432.88908,0.57415
1431.39929,0.60336
1429.90951,0.65242
1428.41972,0.74365
1426.92993,0.84713
1425.44014,0.92666
1423.95035,0.93377
1422.46056,0.94090
1420.97078,0.97812
1419.48099,1.00845
1417.99120,1.02429
1416.50141,1.02242
1415.01162,0.93602
1413.52183,0.92153
1412.03204,0.87618
1410.54226,0.79424
1409.05247,0.72406
1407.56268,0.68363
1406.07289,0.61373
1404.58310,0.57577
1403.09331,0.53783
1401.60353,0.49888
1400.11374,0.43115
1398.62395,0.40607
1397.13416,0.36466
1395.64437,0.30023
1394.15458,0.26647
1392.66479,0.24655
1391.17501,0.19395
1389.68522,0.16026
1388.19543,0.12452
1386.70564,0.10804
1385.21585,0.09159
1383.72606,0.05822
1382.23628,0.06520
1380.74649,0.03949
1379.25670,0.02486
1377.76691,0.02270
1376.27712,0.01802
1374.78733,0.01683
1373.29755,0.01704
1371.80776,0.01198
1370.31797,0.03399
1368.82818,0.03242
1367.33839,0.03087
1365.84860,0.02623
1364.35881,0.04373
1362.86903,0.05527
1361.37924,0.07627
1359.88945,0.11458
1358.39966,0.13126
1356.90987,0.17123
1355.42008,0.21722
1353.93030,0.25862
1352.44051,0.29037
1350.95072,0.32214
1349.46093,0.41914
1347.97114,0.47769
1346.48135,0.54870
1344.99156,0.63770
1343.50178,0.69816
1342.01199,0.76234
1340.52220,0.80949
1339.03241,0.87394
1337.54262,0.93450
1336.05283,0.96363
1334.56305,0.99280
1333.07326,1.04490
1331.58347,1.04128
1330.09368,0.99046
1328.60389,0.93367
1327.11410,0.95823
1325.62432,0.94019
1324.13453,0.95075
1322.64474,0.90903
1321.15495,0.83693
1319.66516,0.79883
1318.17537,0.76075
1316.68558,0.70830
1315.19580,0.66556
1313.70601,0.60855
1312.21622,0.56838
1310.72643,0.54045
1309.23664,0.51600
1307.74685,0.47982
1306.25707,0.41741
1304.76728,0.39153
1303.27749,0.36568
1301.78770,0.36139
1300.29791,0.30944
1298.80812,0.24553
1297.31834,0.19755
1295.82855,0.16917
1294.33876,0.14496
1292.84897,0.14450
1291.35918,0.12933
1289.86939,0.12212
1288.37960,0.11494
1286.88982,0.10583
1285.40003,0.11333
1283.91024,0.11118
1282.42045,0.10813
1280.93066,0.07584
1279.44087,0.06316
1277.95109,0.06019
1276.46130,0.04963
1274.97151,0.04382
1273.48172,0.03804
1271.99193,0.04852
1270.50214,0.05534
1269.01235,0.03753
1267.52257,0.03196
1266.03278,0.02019
1264.54299,0.01374
1263.05320,0.03405
1261.56341,0.03272
1260.07362,0.03141
1258.58384,0.03543
1257.09405,0.02381
1255.60426,0.01198
1254.11447,0.02007
1252.62468,0.03256
1251.13489,0.02318
1249.64511,0.02766
1248.15532,0.02847
1246.66553,0.02931
1245.17574,0.03017
1243.68595,0.02483
1242.19616,0.02620
1240.70637,0.01009
1239.21659,0.01750
1237.72680,0.03553
1236.23701,0.03031
1234.74722,0.02512
1233.25743,0.02676
1231.76764,0.02841
1230.27786,0.01938
1228.78807,0.01198
1227.29828,0.01534
1225.80849,0.02264
1224.31870,0.02720
1222.82891,0.03708
1221.33912,0.04422
1219.84934,0.04091
1218.35955,0.03761
1216.86976,0.03515
1215.37997,0.06197
1213.89018,0.06163
1212.40039,0.06086
1210.91061,0.06425
1209.42082,0.04809
1207.93103,0.05891
1206.44124,0.06975
1204.95145,0.06241
1203.46166,0.05971
1201.97188,0.04390
1200.48209,0.04262
1198.99230,0.06487
1197.50251,0.04798
1196.01272,0.04908
1194.52293,0.04319
1193.03314,0.03731
1191.54336,0.02927
1190.05357,0.01388
1188.56378,0.02317
1187.07399,0.01198
1185.58420,0.03953
1184.09441,0.03969
1182.60463,0.03526
1181.11484,0.03086
1179.62505,0.01865
1178.13526,0.01315
1176.64547,0.01780
1175.15568,0.01166
1173.66589,0.01251
1172.17611,0.02306
1170.68632,0.01751
1169.19653,0.01198
1167.70674,0.01733
1166.21695,0.02178
1164.72716,0.02488
1163.23738,0.03306
1161.74759,0.05487
1160.25780,0.06057
1158.76801,0.06342
1157.27822,0.06629
1155.78843,0.08220
1154.29865,0.08961
1152.80886,0.08668
1151.31907,0.10565
1149.82928,0.10484
1148.33949,0.11765
1146.84970,0.12484
1145.35991,0.13205
1143.87013,0.12166
1142.38034,0.14217
1140.89055,0.14058
1139.40076,0.16666
1137.91097,0.18494
1136.42118,0.20047
1134.93140,0.20843
1133.44161,0.21641
1131.95182,0.24169
1130.46203,0.26585
1128.97224,0.26515
1127.48245,0.24166
1125.99266,0.21936
1124.50288,0.25006
1123.01309,0.25452
1121.52330,0.25901
1120.03351,0.26214
1118.54372,0.27083
1117.05393,0.24521
1115.56415,0.24334
1114.07436,0.22215
1112.58457,0.22897
1111.09478,0.23582
1109.60499,0.22852
1108.11520,0.23645
1106.62542,0.24925
1105.13563,0.23373
1103.64584,0.22446
1102.15605,0.22235
1100.66626,0.21416
1099.17647,0.20599
1097.68668,0.20903
1096.19690,0.21162
1094.70711,0.19812
1093.21732,0.20053
1091.72753,0.19583
1090.23774,0.19115
1088.74795,0.18650
1087.25817,0.18440
1085.76838,0.18786
1084.27859,0.18144
1082.78880,0.17642
1081.29901,0.17004
1079.80922,0.17452
1078.31943,0.17625
1076.82965,0.17801
1075.33986,0.18671
1073.85007,0.20188
1072.36028,0.21201
1070.87049,0.21502
1069.38070,0.24362
1067.89092,0.26580
1066.40113,0.28800
1064.91134,0.34225
1063.42155,0.39837
1061.93176,0.47640
1060.44197,0.53625
1058.95219,0.60442
1057.46240,0.65280
1055.97261,0.70121
1054.48282,0.80562
1052.99303,0.86928
1051.50324,0.87629
1050.01345,0.90613
1048.52367,0.89891
1047.03388,0.89010
1045.54409,0.88131
1044.05430,0.82485
1042.56451,0.77879
1041.07472,0.74105
1039.58494,0.65725
1038.09515,0.60320
1036.60536,0.56714
1035.11557,0.53110
1033.62578,0.48565
1032.13599,0.42478
1030.64620,0.35449
1029.15642,0.28699
1027.66663,0.26801
1026.17684,0.24905
1024.68705,0.21250
1023.19726,0.19278
1021.70747,0.16618
1020.21769,0.15619
1018.72790,0.13954
1017.23811,0.13962
1015.74832,0.13973
1014.25853,0.12385
1012.76874,0.10914
1011.27896,0.12325
1009.78917,0.11390
1008.29938,0.09581
1006.80959,0.09145
1005.31980,0.08711
1003.83001,0.04721
1002.34022,0.02945
1000.85044,0.03705
999.36065,0.03339
997.87086,0.03505
996.38107,0.03674
994.89128,0.05481
993.40149,0.05931
991.91171,0.07650
990.42192,0.09741
988.93213,0.09876
987.44234,0.10543
985.95255,0.11212
984.46276,0.09235
982.97297,0.09103
981.48319,0.08558
979.99340,0.06726
978.50361,0.06025
977.01382,0.05327
975.52403,0.04009
974.03424,0.03684
972.54446,0.01911
971.05467,0.01568
969.56488,0.02471
968.07509,0.01833
966.58530,0.01198
965.09551,0.01519
963.60573,0.04285
962.11594,0.04242
960.62615,0.04409
959.13636,0.04037
957.64657,0.03667
956.15678,0.01146
954.66699,0.03575
953.17721,0.04809
951.68742,0.05723
950.19763,0.06293
948.70784,0.06866
947.21805,0.08708
945.72826,0.08203
944.23848,0.10534
942.74869,0.12107
941.25890,0.12324
939.76911,0.12750
938.27932,0.13178
936.78953,0.16835
935.29974,0.18558
933.80996,0.20860
932.32017,0.22059
930.83038,0.23444
929.34059,0.24832
927.85080,0.26222
926.36101,0.27430
924.87123,0.29723
923.38144,0.32388
921.89165,0.35619
920.40186,0.38853
918.91207,0.50302
917.42228,0.61385
915.93250,0.76111
914.44271,0.95331
912.95292,1.06559
911.46313,1.17790
909.97334,1.37917
908.48355,1.59980
906.99376,1.76748
905.50398,1.87827
904.01419,1.92182
902.52440,1.96539
901.03461,2.00000
899.54482,1.97819
898.05503,1.87647
896.56525,1.67708
895.07546,1.53198
893.58567,1.38690
892.09588,1.15165
890.60609,0.91596
889.11630,0.68283
887.62651,0.50110
886.13673,0.42814
884.64694,0.35519
883.15715,0.26477
881.66736,0.18865
880.17757,0.13122
878.68778,0.12046
877.19800,0.10973
875.70821,0.07241
874.21842,0.04825
872.72863,0.03794
871.23884,0.01959
869.74905,0.01577
868.25927,0.01198
866.76948,0.02581
865.27969,0.02975
863.78990,0.05353
862.30011,0.06882
860.81032,0.06846
859.32053,0.06812
857.83075,0.07633
856.34096,0.09609
854.85117,0.11840
853.36138,0.11033
851.87159,0.10735
850.38180,0.10440
848.89202,0.15883
847.40223,0.14786
845.91244,0.18184
844.42265,0.18843
842.93286,0.19504
841.44307,0.20698
839.95329,0.21479
838.46350,0.21088
836.97371,0.24431
835.48392,0.24655
833.99413,0.24881
832.50434,0.24108
831.01455,0.24420
829.52477,0.21786
828.03498,0.16827
826.54519,0.16593
825.05540,0.16362
823.56561,0.15811
822.07582,0.14041
820.58604,0.13955
819.09625,0.13860
817.60646,0.13768
816.11667,0.13689
814.62688,0.10849
813.13709,0.12388
811.64730,0.12731
810.15752,0.12075
808.66773,0.11421
807.17794,0.11749
805.68815,0.13323
804.19836,0.11214
802.70857,0.12436
801.21879,0.13660
799.72900,0.15198
798.23921,0.12683
796.74942,0.11346
795.25963,0.10265
793.76984,0.09186
792.28006,0.12418
790.79027,0.12127
789.30048,0.16355
787.81069,0.19571
786.32090,0.21545
784.83111,0.23522
783.34132,0.25086
781.85154,0.27897
780.36175,0.31263
778.87196,0.32858
777.38217,0.34455
775.89238,0.38728
774.40259,0.37588
772.91281,0.37649
771.42302,0.37355
769.93323,0.37064
768.44344,0.32110
766.95365,0.26813
765.46386,0.23499
763.97407,0.19244
762.48429,0.17870
760.99450,0.16499
759.50471,0.13172
758.01492,0.10308
756.52513,0.11502
755.03534,0.10359
753.54556,0.09219
752.05577,0.06987
750.56598,0.08098
749.07619,0.06286
747.58640,0.05904
746.09661,0.05525
744.60683,0.03213
743.11704,0.03945
741.62725,0.03388
740.13746,0.03526
738.64767,0.03665
737.15788,0.03185
735.66809,0.01510
734.17831,0.02164
732.68852,0.01680
731.19873,0.01198
729.70894,0.01219
728.21915,0.01289
726.72936,0.01873
725.23958,0.01354
723.74979,0.01389
722.26000,0.01428
720.77021,0.01146
719.28042,0.02341
717.79063,0.01073
716.30084,0.01354
714.81106,0.01637
713.32127,0.02557
711.83148,0.03110
710.34169,0.02421
708.85190,0.02806
707.36211,0.03194
705.87233,0.02904
704.38254,0.03516
702.89275,0.06594
701.40296,0.06750
699.91317,0.06908
698.42338,0.07437
696.93360,0.10203
695.44381,0.11589
693.95402,0.12413
692.46423,0.13239
690.97444,0.13342
689.48465,0.15476
687.99486,0.18648
686.50508,0.18943
685.01529,0.19240
683.52550,0.22235
682.03571,0.24472
680.54592,0.28371
679.05613,0.28321
677.56635,0.28273
676.07656,0.31234
674.58677,0.26342
673.09698,0.22719
671.60719,0.22853
670.11740,0.22991
668.62761,0.20873
667.13783,0.19310
665.64804,0.17139
664.15825,0.14970
662.66846,0.12493
661.17867,0.10641
659.68888,0.08284
658.19910,0.07001
656.70931,0.05720
655.21952,0.04706
653.72973,0.05192
652.23994,0.05336
650.75015,0.05792
649.26037,0.06251
647.77058,0.04974
646.28079,0.04896
644.79100,0.04453
643.30121,0.04103
641.81142,0.03757
640.32163,0.03804
638.83185,0.03900
637.34206,0.01441
635.85227,0.01761
634.36248,0.02083
632.87269,0.01198
631.38290,0.02289
629.89312,0.02622
628.40333,0.02762
626.91354,0.02904
625.42375,0.03498
623.93396,0.02459
622.44417,0.02643
620.95438,0.02829
619.46460,0.03548
617.97481,0.03463
616.48502,0.06859
614.99523,0.08368
613.50544,0.09880
612.01565,0.15034
610.52587,0.20237
609.03608,0.20811
607.54629,0.22805
606.05650,0.24801
604.56671,0.30843
603.07692,0.36564
601.58714,0.36828
600.09735,0.37095
598.60756,0.41557
597.11777,0.45261
595.62798,0.43807
594.13819,0.42631
592.64840,0.41458
591.15862,0.38146
589.66883,0.33867
588.17904,0.30237
586.68925,0.28037
585.19946,0.25840
583.70967,0.21755
582.21989,0.16291
580.73010,0.14032
579.24031,0.11775
577.75052,0.09659
576.26073,0.08098
574.77094,0.06056
573.28115,0.05641
571.79137,0.05227
570.30158,0.04137
568.81179,0.06942
567.32200,0.07573
565.83221,0.08206
564.34242,0.12586
562.85264,0.14134
561.36285,0.16076
559.87306,0.17399
558.38327,0.18724
556.89348,0.17332
555.40369,0.17579
553.91391,0.18416
552.42412,0.19256
550.93433,0.20754
549.44454,0.21725
547.95475,0.20487
546.46496,0.21509
544.97517,0.22533
543.48539,0.25241
541.99560,0.26593
540.50581,0.29214
539.01602,0.31838
537.52623,0.36629
536.03644,0.38543
534.54666,0.41174
533.05687,0.43738
531.56708,0.46305
530.07729,0.53965
528.58750,0.60453
527.09771,0.62993
525.60792,0.65534
524.11814,0.71523
522.62835,0.73505
521.13856,0.80996
519.64877,0.83927
518.15898,0.86861
516.66919,0.92977
515.17941,0.90617
513.68962,0.91519
512.19983,0.92424
510.71004,0.90140
509.22025,0.80579
507.73046,0.72403
506.24068,0.69044
504.75089,0.65687
503.26110,0.51874
501.77131,0.40504
500.28152,0.36211
498.79173,0.31919
497.30194,0.24335
495.81216,0.22744
494.32237,0.20579
492.83258,0.18417
491.34279,0.15313
489.85300,0.10851
488.36321,0.06070
486.87343,0.07097
485.38364,0.08126
483.89385,0.09894
482.40406,0.16573
480.91427,0.15478
479.42448,0.14386
477.93469,0.17362
476.44491,0.15411
474.95512,0.17470
473.46533,0.19533
471.97554,0.20399
470.48575,0.20669
468.99596,0.17394
467.50618,0.18832
466.01639,0.20273
464.52660,0.13503
463.03681,0.13209
461.54702,0.11374
460.05723,0.09541
458.56745,0.08771
457.07766,0.05884
455.58787,0.05832
454.09808,0.05783
452.60829,0.05092
451.11850,0.04265
449.62871,0.03025
448.13893,0.01788
446.64914,0.01198
445.15935,0.01697
443.66956,0.05100
442.17977,0.05201
440.68998,0.05303
439.20020,0.07401
437.71041,0.06806
436.22062,0.05868
434.73083,0.04932
433.24104,0.04113
431.75125,0.07191
430.26146,0.07230
428.77168,0.07271
427.28189,0.03860
425.79210,0.04390
424.30231,0.04081
422.81252,0.03775
421.32273,0.03921
419.83295,0.02203
418.34316,0.02987
416.85337,0.03773
415.36358,0.04113
413.87379,0.07059
412.38400,0.06389
410.89422,0.05723
409.40443,0.02801
407.91464,0.04074
406.42485,0.03484
404.93506,0.03495
403.44527,0.03508
401.95548,0.03732
400.46570,0.02805
398.97591,0.02872
397.48612,0.02941
395.99633,0.03704
394.50654,0.03364
393.01675,0.02841
391.52697,0.02321
390.03718,0.03246
388.54739,0.02307
387.05760,0.02972
385.56781,0.03639
384.07802,0.03444
382.58824,0.01409
381.09845,0.01323
379.60866,0.01240
378.11887,0.01331
376.62908,0.01080
375.13929,0.01026
373.64950,0.00974
372.15972,0.02710
370.66993,0.04103
369.18014,0.03402
367.69035,0.02703
366.20056,0.04478
364.71077,0.06232
363.22099,0.04890
361.73120,0.03550
360.24141,0.04344
358.75162,0.03251
357.26183,0.03013
355.77204,0.02778
354.28225,0.03881
352.79247,0.07797
351.30268,0.07165
349.81289,0.06536
348.32310,0.08893
346.83331,0.08580
345.34352,0.08742
343.85374,0.08905
342.36395,0.06157
340.87416,0.06729
339.38437,0.04309
337.89458,0.01891
336.40479,0.01198
334.91501,0.03814
333.42522,0.04267
331.93543,0.04722
330.44564,0.04143
328.95585,0.05777
327.46606,0.07219
325.97627,0.08663
324.48649,0.06872
322.99670,0.04554
321.50691,0.04612
320.01712,0.04672
318.52733,0.10240
317.03754,0.11457
315.54776,0.10763
314.05797,0.10073
312.56818,0.13877
311.07839,0.15426
309.58860,0.13279
308.09881,0.11135
306.60902,0.11678
305.11924,0.07546
303.62945,0.05685
302.13966,0.03828
300.64987,0.01200
299.16008,0.01198
