1778.52000,0.02299
1777.03021,0.00588
1775.54042,0.01813
1774.05063,0.02414
1772.56085,0.01735
1771.07106,0.01572
1769.58127,0.03861
1768.09148,0.01908
1766.60169,0.01354
1765.11190,0.01087
1763.62212,0.00224
1762.13233,0.00873
1760.64254,0.01240
1759.15275,0.01581
1757.66296,0.01354
1756.17317,0.00106
1754.68339,0.00881
1753.19360,0.00690
1751.70381,0.00389
1750.21402,0.01029
1748.72423,0.00561
1747.23444,0.00865
1745.74465,0.00886
1744.25487,0.00711
1742.76508,0.00224
1741.27529,0.00454
1739.78550,0.01313
1738.29571,0.00779
1736.80592,0.02013
1735.31614,0.02396
1733.82635,0.01357
1732.33656,0.00320
1730.84677,0.01308
1729.35698,0.00760
1727.86719,0.01298
1726.37740,0.00129
1724.88762,0.01496
1723.39783,0.01357
1721.90804,0.00224
1720.41825,0.01853
1718.92846,0.00410
1717.43867,0.00685
1715.94889,0.01960
1714.45910,0.03010
1712.96931,0.01955
1711.47952,0.00532
1709.98973,0.00734
1708.49994,0.00000
1707.01016,0.01019
1705.52037,0.02041
1704.03058,0.01171
1702.54079,0.01244
1701.05100,0.01974
1699.56121,0.01568
1698.07142,0.00224
1696.58164,0.01086
1695.09185,0.02747
1693.60206,0.02247
1692.11227,0.01635
1690.62248,0.01880
1689.13269,0.02213
1687.64291,0.03061
1686.15312,0.03997
1684.66333,0.01546
1683.17354,0.02715
1681.68375,0.02206
1680.19396,0.02440
1678.70417,0.02477
1677.21439,0.02829
1675.72460,0.03840
1674.23481,0.02232
1672.74502,0.01795
1671.25523,0.01560
1669.76544,0.04288
1668.27566,0.04200
1666.78587,0.03317
1665.29608,0.04145
1663.80629,0.03723
1662.31650,0.06578
1660.82671,0.05078
1659.33693,0.05204
1657.84714,0.04963
1656.35735,0.04610
1654.86756,0.05256
1653.37777,0.05221
1651.88798,0.05046
1650.39819,0.04874
1648.90841,0.05160
1647.41862,0.05619
1645.92883,0.04984
1644.43904,0.04352
1642.94925,0.07239
1641.45946,0.06683
1639.96968,0.05674
1638.47989,0.07030
1636.99010,0.06368
1635.50031,0.06277
1634.01052,0.06502
1632.52073,0.07755
1631.03094,0.07017
1629.54116,0.07705
1628.05137,0.08766
1626.56158,0.06839
1625.07179,0.05542
1623.58200,0.04446
1622.09221,0.04520
1620.60243,0.04340
1619.11264,0.05985
1617.62285,0.07234
1616.13306,0.06065
1614.64327,0.07092
1613.15348,0.09373
1611.66370,0.09094
1610.17391,0.07764
1608.68412,0.10708
1607.19433,0.08700
1605.70454,0.09997
1604.21475,0.08236
1602.72496,0.06477
1601.23518,0.06329
1599.74539,0.06298
1598.25560,0.08007
1596.76581,0.06215
1595.27602,0.07643
1593.78623,0.07110
1592.29645,0.06977
1590.80666,0.06961
1589.31687,0.06747
1587.82708,0.06622
1586.33729,0.06898
1584.84750,0.07974
1583.35771,0.07998
1581.86793,0.09506
1580.37814,0.06431
1578.88835,0.06036
1577.39856,0.04163
1575.90877,0.05396
1574.41898,0.05663
1572.92920,0.05847
1571.43941,0.04496
1569.94962,0.05141
1568.45983,0.05788
1566.97004,0.02394
1565.48025,0.02790
1563.99047,0.01224
1562.50068,0.01653
1561.01089,0.01516
1559.52110,0.02320
1558.03131,0.02273
1556.54152,0.01829
1555.05173,0.00677
1553.56195,0.01605
1552.07216,0.01824
1550.58237,0.02671
1549.09258,0.02895
1547.60279,0.01214
1546.11300,0.00958
1544.62322,0.01645
1543.13343,0.01851
1541.64364,0.01916
1540.15385,0.01713
1538.66406,0.01513
1537.17427,0.02782
1535.68448,0.02572
1534.19470,0.03134
1532.70491,0.00224
1531.21512,0.01239
1529.72533,0.03196
1528.23554,0.03732
1526.74575,0.02534
1525.25597,0.03587
1523.76618,0.04386
1522.27639,0.03993
1520.78660,0.04171
1519.29681,0.04380
1517.80702,0.04790
1516.31724,0.05659
1514.82745,0.05392
1513.33766,0.05169
1511.84787,0.04949
1510.35808,0.06967
1508.86829,0.06254
1507.37850,0.08476
1505.88872,0.05575
1504.39893,0.04328
1502.90914,0.04877
1501.41935,0.06967
1499.92956,0.06126
1498.43977,0.06455
1496.94999,0.08324
1495.46020,0.10338
1493.97041,0.10846
1492.48062,0.12295
1490.99083,0.13377
1489.50104,0.12240
1488.01125,0.12715
1486.52147,0.13192
1485.03168,0.12233
1483.54189,0.14495
1482.05210,0.15307
1480.56231,0.19452
1479.07252,0.17365
1477.58274,0.19893
1476.09295,0.19604
1474.60316,0.22877
1473.11337,0.22793
1471.62358,0.24305
1470.13379,0.21634
1468.64401,0.20561
1467.15422,0.23106
1465.66443,0.24956
1464.17464,0.26808
1462.68485,0.30870
1461.19506,0.33852
1459.70527,0.36552
1458.21549,0.40707
1456.72570,0.45405
1455.23591,0.54633
1453.74612,0.55093
1452.25633,0.60482
1450.76654,0.66442
1449.27676,0.70697
1447.78697,0.68747
1446.29718,0.65660
1444.80739,0.65950
1443.31760,0.66243
1441.82781,0.57867
1440.33802,0.52627
1438.84824,0.51602
1437.35845,0.48758
1435.86866,0.48480
1434.37887,0.48032
1432.88908,0.51289
1431.39929,0.54179
1429.90951,0.61114
1428.41972,0.67425
1426.92993,0.75532
1425.44014,0.86661
1423.95035,0.87626
1422.46056,0.88594
1420.97078,0.92554
1419.48099,0.93185
1417.99120,0.98375
1416.50141,0.95508
1415.01162,0.87490
1413.52183,0.85398
1412.03204,0.78894
1410.54226,0.70656
1409.05247,0.67005
1407.56268,0.62473
1406.07289,0.54727
1404.58310,0.52535
1403.09331,0.50346
1401.60353,0.44401
1400.11374,0.39540
1398.62395,0.36504
1397.13416,0.33072
1395.64437,0.27393
1394.15458,0.23681
1392.66479,0.19886
1391.17501,0.17289
1389.68522,0.12588
1388.19543,0.10025
1386.70564,0.08703
1385.21585,0.07384
1383.72606,0.05882
1382.23628,0.03528
1380.74649,0.02031
1379.25670,0.01419
1377.76691,0.00952
1376.27712,0.00316
1374.78733,0.00224
1373.29755,0.00269
1371.80776,0.00984
1370.31797,0.01530
1368.82818,0.01068
1367.33839,0.00608
1365.84860,0.01048
1364.35881,0.02942
1362.86903,0.02390
1361.37924,0.05600
1359.88945,0.07985
1358.39966,0.10146
1356.90987,0.11854
1355.42008,0.17379
1353.93030,0.23591
1352.44051,0.27583
1350.95072,0.31579
1349.46093,0.38908
1347.97114,0.43706
1346.48135,0.49559
1344.99156,0.59971
1343.50178,0.65232
1342.01199,0.71264
1340.52220,0.71774
1339.03241,0.78409
1337.54262,0.86612
1336.05283,0.87828
1334.56305,0.89046
1333.07326,0.94551
1331.58347,0.95105
1330.09368,0.90792
1328.60389,0.89557
1327.11410,0.87697
1325.62432,0.88090
1324.13453,0.84328
1322.64474,0.77265
1321.15495,0.75046
1319.66516,0.71504
1318.17537,0.67966
1316.68558,0.65554
1315.19580,0.60554
1313.70601,0.55357
1312.21622,0.50533
1310.72643,0.46793
1309.23664,0.45903
1307.74685,0.43335
1306.25707,0.37240
1304.76728,0.35318
1303.27749,0.33398
1301.78770,0.31951
1300.29791,0.26321
1298.80812,0.24167
1297.31834,0.17517
1295.82855,0.16564
1294.33876,0.13392
1292.84897,0.11447
1291.35918,0.08850
1289.86939,0.09032
1288.37960,0.09216
1286.88982,0.09075
1285.40003,0.10047
1283.91024,0.09569
1282.42045,0.08297
1280.93066,0.07197
1279.44087,0.04335
1277.95109,0.03896
1276.46130,0.02662
1274.97151,0.02925
1273.48172,0.03191
1271.99193,0.03132
1270.50214,0.03132
1269.01235,0.03932
1267.52257,0.01573
1266.03278,0.02407
1264.54299,0.00224
1263.05320,0.02098
1261.56341,0.01880
1260.07362,0.01666
1258.58384,0.02294
1257.09405,0.00931
1255.60426,0.01193
1254.11447,0.00462
1252.62468,0.01122
1251.13489,0.03152
1249.64511,0.02337
1248.15532,0.01753
1246.66553,0.02623
1245.17574,0.03495
1243.68595,0.00697
1242.19616,0.00910
1240.70637,0.00670
1239.21659,0.01315
1237.72680,0.01450
1236.23701,0.02214
1234.74722,0.02241
1233.25743,0.01301
1231.76764,0.00364
1230.27786,0.02619
1228.78807,0.00292
1227.29828,0.01368
1225.80849,0.02105
1224.31870,0.03329
1222.82891,0.03501
1221.33912,0.02765
1219.84934,0.02772
1218.35955,0.02781
1216.86976,0.03960
1215.37997,0.02949
1213.89018,0.04930
1212.40039,0.05433
1210.91061,0.05739
1209.42082,0.05194
1207.93103,0.05220
1206.44124,0.05249
1204.95145,0.03572
1203.46166,0.04147
1201.97188,0.03898
1200.48209,0.03225
1198.99230,0.04747
1197.50251,0.05275
1196.01272,0.07343
1194.52293,0.06281
1193.03314,0.05222
1191.54336,0.03481
1190.05357,0.01943
1188.56378,0.02770
1187.07399,0.01294
1185.58420,0.04660
1184.09441,0.04442
1182.60463,0.04026
1181.11484,0.03613
1179.62505,0.03430
1178.13526,0.02338
1176.64547,0.00224
1175.15568,0.02705
1173.66589,0.02454
1172.17611,0.03942
1170.68632,0.03198
1169.19653,0.02456
1167.70674,0.04721
1166.21695,0.02974
1164.72716,0.04019
1163.23738,0.03358
1161.74759,0.06060
1160.25780,0.07056
1158.76801,0.08809
1157.27822,0.10564
1155.78843,0.10144
1154.29865,0.09555
1152.80886,0.08285
1151.31907,0.11716
1149.82928,0.14808
1148.33949,0.14941
1146.84970,0.13710
1145.35991,0.12481
1143.87013,0.13020
1142.38034,0.14586
1140.89055,0.16440
1139.40076,0.17413
1137.91097,0.19472
1136.42118,0.20194
1134.93140,0.21716
1133.44161,0.23240
1131.95182,0.23372
1130.46203,0.26524
1128.97224,0.25579
1127.48245,0.24522
1125.99266,0.20905
1124.50288,0.22103
1123.01309,0.25111
1121.52330,0.28121
1120.03351,0.28358
1118.54372,0.27459
1117.05393,0.26675
1115.56415,0.29511
1114.07436,0.25914
1112.58457,0.25579
1111.09478,0.25247
1109.60499,0.20262
1108.11520,0.24648
1106.62542,0.23682
1105.13563,0.25311
1103.64584,0.23952
1102.15605,0.23478
1100.66626,0.22224
1099.17647,0.20972
1097.68668,0.22898
1096.19690,0.21209
1094.70711,0.20065
1093.21732,0.17271
1091.72753,0.18010
1090.23774,0.18596
1088.74795,0.19183
1087.25817,0.19560
1085.76838,0.17377
1084.27859,0.18527
1082.78880,0.18314
1081.29901,0.18216
1079.80922,0.17011
1078.31943,0.17844
1076.82965,0.18679
1075.33986,0.19702
1073.85007,0.18193
1072.36028,0.21898
1070.87049,0.21248
1069.38070,0.23534
1067.89092,0.26036
1066.40113,0.28540
1064.91134,0.32684
1063.42155,0.39137
1061.93176,0.45507
1060.44197,0.52962
1058.95219,0.59194
1057.46240,0.63650
1055.97261,0.68108
1054.48282,0.77053
1052.99303,0.81929
1051.50324,0.83532
1050.01345,0.83828
1048.52367,0.84867
1047.03388,0.83118
1045.54409,0.81372
1044.05430,0.75926
1042.56451,0.74156
1041.07472,0.68345
1039.58494,0.61597
1038.09515,0.52517
1036.60536,0.51568
1035.11557,0.50622
1033.62578,0.47443
1032.13599,0.41334
1030.64620,0.35312
1029.15642,0.29009
1027.66663,0.26751
1026.17684,0.24496
1024.68705,0.20193
1023.19726,0.17857
1021.70747,0.13189
1020.21769,0.13848
1018.72790,0.14310
1017.23811,0.11984
1015.74832,0.09660
1014.25853,0.11240
1012.76874,0.08609
1011.27896,0.09311
1009.78917,0.04292
1008.29938,0.03006
1006.80959,0.03488
1005.31980,0.03973
1003.83001,0.01840
1002.34022,0.03810
1000.85044,0.02764
999.36065,0.03429
997.87086,0.03200
996.38107,0.02973
994.89128,0.02535
993.40149,0.07254
991.91171,0.05625
990.42192,0.06846
988.93213,0.08980
987.44234,0.09366
985.95255,0.09755
984.46276,0.07968
982.97297,0.07976
981.48319,0.07475
979.99340,0.03702
978.50361,0.04274
977.01382,0.04848
975.52403,0.02307
974.03424,0.01846
972.54446,0.02556
971.05467,0.01417
969.56488,0.00224
968.07509,0.00272
966.58530,0.00322
965.09551,0.01072
963.60573,0.02166
962.11594,0.02352
960.62615,0.01059
959.13636,0.00794
957.64657,0.00531
956.15678,0.00328
954.66699,0.00241
953.17721,0.00015
951.68742,0.03313
950.19763,0.04634
948.70784,0.05958
947.21805,0.07783
945.72826,0.07275
944.23848,0.08279
942.74869,0.10054
941.25890,0.09753
939.76911,0.11092
938.27932,0.12433
936.78953,0.14047
935.29974,0.16290
933.80996,0.20216
932.32017,0.22122
930.83038,0.22935
929.34059,0.23750
927.85080,0.27287
926.36101,0.24903
924.87123,0.27562
923.38144,0.32417
921.89165,0.35892
920.40186,0.39370
918.91207,0.50582
917.42228,0.62821
915.93250,0.76770
914.44271,0.92260
912.95292,1.03168
911.46313,1.14079
909.97334,1.42191
908.48355,1.61705
906.99376,1.71086
905.50398,1.86875
904.01419,1.91762
902.52440,1.96650
901.03461,1.98438
899.54482,2.00000
898.05503,1.89435
896.56525,1.63552
895.07546,1.50998
893.58567,1.38447
892.09588,1.09753
890.60609,0.86984
889.11630,0.67237
887.62651,0.46153
886.13673,0.40462
884.64694,0.34774
883.15715,0.25714
881.66736,0.17254
880.17757,0.10363
878.68778,0.08358
877.19800,0.06355
875.70821,0.04141
874.21842,0.03467
872.72863,0.03565
871.23884,0.03637
869.74905,0.02287
868.25927,0.00940
866.76948,0.01019
865.27969,0.01698
863.78990,0.01725
862.30011,0.04631
860.81032,0.04549
859.32053,0.04469
857.83075,0.06357
856.34096,0.07194
854.85117,0.08004
853.36138,0.08789
851.87159,0.09676
850.38180,0.10565
848.89202,0.11243
847.40223,0.13348
845.91244,0.13803
844.42265,0.14403
842.93286,0.15006
841.44307,0.17405
839.95329,0.17813
838.46350,0.17882
836.97371,0.18950
835.48392,0.20349
833.99413,0.21749
832.50434,0.20689
831.01455,0.20600
829.52477,0.18491
828.03498,0.15331
826.54519,0.13783
825.05540,0.12237
823.56561,0.12217
822.07582,0.12655
820.58604,0.12982
819.09625,0.12058
817.60646,0.11136
816.11667,0.10730
814.62688,0.09757
813.13709,0.10523
811.64730,0.10750
810.15752,0.10582
808.66773,0.10416
807.17794,0.08287
805.68815,0.09009
804.19836,0.08850
802.70857,0.10886
801.21879,0.12925
799.72900,0.11748
798.23921,0.10660
796.74942,0.12478
795.25963,0.11124
793.76984,0.09773
792.28006,0.12054
790.79027,0.10665
789.30048,0.12809
787.81069,0.16464
786.32090,0.18314
784.83111,0.20167
783.34132,0.21011
781.85154,0.23879
780.36175,0.24927
778.87196,0.26690
777.38217,0.28455
775.89238,0.31931
774.40259,0.33217
772.91281,0.34705
771.42302,0.32593
769.93323,0.30484
768.44344,0.25060
766.95365,0.20919
765.46386,0.18376
763.97407,0.14184
762.48429,0.13425
760.99450,0.12669
759.50471,0.11019
758.01492,0.09968
756.52513,0.07412
755.03534,0.07989
753.54556,0.08570
752.05577,0.04340
750.56598,0.05694
749.07619,0.05627
747.58640,0.05064
746.09661,0.04504
744.60683,0.02137
743.11704,0.03276
741.62725,0.01171
740.13746,0.01517
738.64767,0.01866
737.15788,0.00224
735.66809,0.00874
734.17831,0.00729
732.68852,0.01654
731.19873,0.02582
729.70894,0.00878
728.21915,0.02195
726.72936,0.01265
725.23958,0.00708
723.74979,0.01842
722.26000,0.02979
720.77021,0.00417
719.28042,0.01532
717.79063,0.00344
716.30084,0.00283
714.81106,0.00224
713.32127,0.02246
711.83148,0.02676
710.34169,0.03735
708.85190,0.03586
707.36211,0.03440
705.87233,0.05246
704.38254,0.02158
702.89275,0.03969
701.40296,0.04701
699.91317,0.05436
698.42338,0.06742
696.93360,0.10557
695.44381,0.10388
693.95402,0.10463
692.46423,0.10541
690.97444,0.12486
689.48465,0.13095
687.99486,0.16469
686.50508,0.16699
685.01529,0.16932
683.52550,0.19032
682.03571,0.22700
680.54592,0.24065
679.05613,0.25503
677.56635,0.26944
676.07656,0.28914
674.58677,0.25391
673.09698,0.20788
671.60719,0.19462
670.11740,0.18139
668.62761,0.20008
667.13783,0.17437
665.64804,0.15594
664.15825,0.13754
662.66846,0.11162
661.17867,0.07120
659.68888,0.04134
658.19910,0.02318
656.70931,0.00505
655.21952,0.02225
653.72973,0.02467
652.23994,0.05530
650.75015,0.05976
649.26037,0.06424
647.77058,0.03373
646.28079,0.02858
644.79100,0.02346
643.30121,0.02106
641.81142,0.01870
640.32163,0.02190
638.83185,0.01289
637.34206,0.00790
635.85227,0.00506
634.36248,0.00224
632.87269,0.00906
631.38290,0.00393
629.89312,0.00823
628.40333,0.01854
626.91354,0.02887
625.42375,0.00619
623.93396,0.00119
622.44417,0.01245
620.95438,0.02373
619.46460,0.03276
617.97481,0.01818
616.48502,0.02612
614.99523,0.06128
613.50544,0.09646
612.01565,0.13722
610.52587,0.18341
609.03608,0.17610
607.54629,0.19387
606.05650,0.21166
604.56671,0.26393
603.07692,0.30342
601.58714,0.30377
600.09735,0.30415
598.60756,0.34172
597.11777,0.40437
595.62798,0.36368
594.13819,0.34095
592.64840,0.31825
591.15862,0.30127
589.66883,0.26466
588.17904,0.25969
586.68925,0.23039
585.19946,0.20112
583.70967,0.15607
582.21989,0.11845
580.73010,0.09823
579.24031,0.07803
577.75052,0.05187
576.26073,0.04624
574.77094,0.02412
573.28115,0.01854
571.79137,0.01298
570.30158,0.00888
568.81179,0.02871
567.32200,0.04188
565.83221,0.05508
564.34242,0.08695
562.85264,0.07869
561.36285,0.13254
559.87306,0.14526
558.38327,0.15801
556.89348,0.14729
555.40369,0.12208
553.91391,0.12863
552.42412,0.13522
550.93433,0.15279
549.44454,0.14020
547.95475,0.13817
546.46496,0.14770
544.97517,0.15726
543.48539,0.17979
541.99560,0.22257
540.50581,0.24786
539.01602,0.27317
537.52623,0.28470
536.03644,0.33982
534.54666,0.34798
533.05687,0.38037
531.56708,0.41279
530.07729,0.46316
528.58750,0.53037
527.09771,0.55901
525.60792,0.58768
524.11814,0.65837
522.62835,0.66673
521.13856,0.77506
519.64877,0.78618
518.15898,0.79732
516.66919,0.80805
515.17941,0.82764
513.68962,0.84540
512.19983,0.86319
510.71004,0.85466
509.22025,0.79007
507.73046,0.66513
506.24068,0.62065
504.75089,0.57620
503.26110,0.50886
501.77131,0.35754
500.28152,0.31587
498.79173,0.27422
497.30194,0.20384
495.81216,0.17791
494.32237,0.16595
492.83258,0.15402
491.34279,0.09656
489.85300,0.07186
488.36321,0.03352
486.87343,0.04902
485.38364,0.06455
483.89385,0.05960
482.40406,0.11333
480.91427,0.11213
479.42448,0.11096
477.93469,0.11010
476.44491,0.12264
474.95512,0.14845
473.46533,0.17428
471.97554,0.16184
470.48575,0.14288
468.99596,0.14843
467.50618,0.14133
466.01639,0.13426
464.52660,0.08435
463.03681,0.08516
461.54702,0.07802
460.05723,0.07090
458.56745,0.06637
457.07766,0.05931
455.58787,0.04543
454.09808,0.03158
452.60829,0.01661
451.11850,0.00224
449.62871,0.00413
448.13893,0.00605
446.64914,0.00913
445.15935,0.02989
443.66956,0.03700
442.17977,0.03659
440.68998,0.03621
439.20020,0.05137
437.71041,0.04435
436.22062,0.04006
434.73083,0.03579
433.24104,0.05731
431.75125,0.04868
430.26146,0.05673
428.77168,0.06481
427.28189,0.02948
425.79210,0.02920
424.30231,0.03721
422.81252,0.04524
421.32273,0.07722
419.83295,0.04572
418.34316,0.03916
416.85337,0.03262
415.36358,0.04960
413.87379,0.05209
412.38400,0.05930
410.89422,0.06653
409.40443,0.06738
407.91464,0.06825
406.42485,0.05292
404.93506,0.05342
403.44527,0.05394
401.95548,0.02673
400.46570,0.02706
398.97591,0.04123
397.48612,0.05543
395.99633,0.03904
394.50654,0.05713
393.01675,0.04905
391.52697,0.04099
390.03718,0.03637
388.54739,0.04415
387.05760,0.04755
385.56781,0.05097
384.07802,0.03804
382.58824,0.01716
381.09845,0.00969
379.60866,0.00224
378.11887,0.03050
376.62908,0.02576
375.13929,0.03627
373.64950,0.04680
372.15972,0.03160
370.66993,0.04005
369.18014,0.04261
367.69035,0.04520
366.20056,0.02731
364.71077,0.04220
363.22099,0.04144
361.73120,0.04072
360.24141,0.00755
358.75162,0.01228
357.26183,0.01690
355.77204,0.02153
354.28225,0.02691
352.79247,0.07502
351.30268,0.07774
349.81289,0.08048
348.32310,0.10418
346.83331,0.08519
345.34352,0.07192
343.85374,0.05868
342.36395,0.02752
340.87416,0.02315
339.38437,0.01268
337.89458,0.00224
336.40479,0.04054
334.91501,0.03443
333.42522,0.03804
331.93543,0.04167
330.44564,0.00688
328.95585,0.05811
327.46606,0.05598
325.97627,0.05387
324.48649,0.05961
322.99670,0.02039
321.50691,0.03060
320.01712,0.04084
318.52733,0.08939
317.03754,0.09498
315.54776,0.10329
314.05797,0.11163
312.56818,0.13665
311.07839,0.10988
309.58860,0.10790
308.09881,0.10594
306.60902,0.08408
305.11924,0.06082
303.62945,0.04726
302.13966,0.03373
300.64987,0.00286
299.16008,0.00224
