1778.52000,0.00000
1777.03021,0.00511
1775.54042,0.01648
1774.05063,0.01602
1772.56085,0.01090
1771.07106,0.02484
1769.58127,0.02507
1768.09148,0.00786
1766.60169,0.01844
1765.11190,0.01251
1763.62212,0.01097
1762.13233,0.03411
1760.64254,0.01452
1759.15275,0.02429
1757.66296,0.02254
1756.17317,0.01020
1754.68339,0.01755
1753.19360,0.02773
1751.70381,0.01984
1750.21402,0.01384
1748.72423,0.01224
1747.23444,0.01097
1745.74465,0.02169
1744.25487,0.02931
1742.76508,0.02479
1741.27529,0.02029
1739.78550,0.02581
1738.29571,0.02167
1736.80592,0.02224
1735.31614,0.02751
1733.82635,0.03250
1732.33656,0.01099
1730.84677,0.01197
1729.35698,0.00798
1727.86719,0.01768
1726.37740,0.02898
1724.88762,0.02188
1723.39783,0.01730
1721.90804,0.01306
1720.41825,0.02071
1718.92846,0.01495
1717.43867,0.02046
1715.94889,0.02974
1714.45910,0.02656
1712.96931,0.01966
1711.47952,0.02277
1709.98973,0.01499
1708.49994,0.01097
1707.01016,0.01943
1705.52037,0.02792
1704.03058,0.03347
1702.54079,0.03779
1701.05100,0.03621
1699.56121,0.03809
1698.07142,0.04498
1696.58164,0.03692
1695.09185,0.03762
1693.60206,0.03336
1692.11227,0.03879
1690.62248,0.04206
1689.13269,0.04349
1687.64291,0.04650
1686.15312,0.04766
1684.66333,0.04667
1683.17354,0.05599
1681.68375,0.06503
1680.19396,0.04881
1678.70417,0.05853
1677.21439,0.06577
1675.72460,0.05805
1674.23481,0.07096
1672.74502,0.07609
1671.25523,0.06470
1669.76544,0.08799
1668.27566,0.08757
1666.78587,0.08094
1665.29608,0.09306
1663.80629,0.09740
1662.31650,0.09553
1660.82671,0.09680
1659.33693,0.11401
1657.84714,0.11221
1656.35735,0.09576
1654.86756,0.10774
1653.37777,0.10102
1651.88798,0.09745
1650.39819,0.10139
1648.90841,0.10566
1647.41862,0.09717
1645.92883,0.09884
1644.43904,0.10054
1642.94925,0.10367
1641.45946,0.09777
1639.96968,0.11031
1638.47989,0.10446
1636.99010,0.09895
1635.50031,0.09627
1634.01052,0.08862
1632.52073,0.08536
1631.03094,0.09399
1629.54116,0.10265
1628.05137,0.10977
1626.56158,0.11223
1625.07179,0.11347
1623.58200,0.12410
1622.09221,0.12008
1620.60243,0.11047
1619.11264,0.10088
1617.62285,0.11660
1616.13306,0.11518
1614.64327,0.13095
1613.15348,0.11771
1611.66370,0.12729
1610.17391,0.11286
1608.68412,0.12904
1607.19433,0.12059
1605.70454,0.10779
1604.21475,0.10251
1602.72496,0.09725
1601.23518,0.11543
1599.74539,0.10023
1598.25560,0.10035
1596.76581,0.09145
1595.27602,0.09006
1593.78623,0.10867
1592.29645,0.10390
1590.80666,0.10695
1589.31687,0.09630
1587.82708,0.08723
1586.33729,0.07632
1584.84750,0.09726
1583.35771,0.09951
1581.86793,0.07992
1580.37814,0.07910
1578.88835,0.08703
1577.39856,0.07626
1575.90877,0.09642
1574.41898,0.07665
1572.92920,0.08593
1571.43941,0.06996
1569.94962,0.05494
1568.45983,0.03995
1566.97004,0.05839
1565.48025,0.05219
1563.99047,0.05849
1562.50068,0.05109
1561.01089,0.03873
1559.52110,0.05291
1558.03131,0.04122
1556.54152,0.03735
1555.05173,0.03725
1553.56195,0.03437
1552.07216,0.03027
1550.58237,0.02899
1549.09258,0.01745
1547.60279,0.03058
1546.11300,0.02782
1544.62322,0.03695
1543.13343,0.02862
1541.64364,0.01439
1540.15385,0.01267
1538.66406,0.01097
1537.17427,0.02922
1535.68448,0.01597
1534.19470,0.03021
1532.70491,0.03011
1531.21512,0.03504
1529.72533,0.03718
1528.23554,0.03747
1526.74575,0.04310
1525.25597,0.03158
1523.76618,0.04662
1522.27639,0.04451
1520.78660,0.04462
1519.29681,0.04163
1517.80702,0.04896
1516.31724,0.06381
1514.82745,0.06464
1513.33766,0.06205
1511.84787,0.05950
1510.35808,0.06477
1508.86829,0.06476
1507.37850,0.06009
1505.88872,0.06762
1504.39893,0.05645
1502.90914,0.07340
1501.41935,0.07382
1499.92956,0.09362
1498.43977,0.07662
1496.94999,0.08087
1495.46020,0.08576
1493.97041,0.09567
1492.48062,0.11903
1490.99083,0.11151
1489.50104,0.13555
1488.01125,0.14041
1486.52147,0.14529
1485.03168,0.15567
1483.54189,0.19665
1482.05210,0.19615
1480.56231,0.21315
1479.07252,0.23548
1477.58274,0.23880
1476.09295,0.24714
1474.60316,0.28577
1473.11337,0.26669
1471.62358,0.29008
1470.13379,0.30632
1468.64401,0.30823
1467.15422,0.30860
1465.66443,0.32257
1464.17464,0.33656
1462.68485,0.37009
1461.19506,0.39927
1459.70527,0.43160
1458.21549,0.51576
1456.72570,0.57935
1455.23591,0.67386
1453.74612,0.73719
1452.25633,0.77214
1450.76654,0.77215
1449.27676,0.78499
1447.78697,0.77975
1446.29718,0.76986
1444.80739,0.73626
1443.31760,0.70270
1441.82781,0.64356
1440.33802,0.60474
1438.84824,0.56781
1437.35845,0.54558
1435.86866,0.53024
1434.37887,0.50025
1432.88908,0.57547
1431.39929,0.64822
1429.90951,0.72692
1428.41972,0.78598
1426.92993,0.85881
1425.44014,0.94320
1423.95035,0.94179
1422.46056,0.94040
1420.97078,0.98991
1419.48099,1.03258
1417.99120,1.05967
1416.50141,1.05932
1415.01162,1.00344
1413.52183,0.98535
1412.03204,0.89456
1410.54226,0.83719
1409.05247,0.76050
1407.56268,0.70068
1406.07289,0.63184
1404.58310,0.60594
1403.09331,0.58006
1401.60353,0.49226
1400.11374,0.42258
1398.62395,0.37415
1397.13416,0.32948
1395.64437,0.28422
1394.15458,0.24804
1392.66479,0.19190
1391.17501,0.14048
1389.68522,0.12808
1388.19543,0.09668
1386.70564,0.08122
1385.21585,0.06578
1383.72606,0.06004
1382.23628,0.05433
1380.74649,0.04146
1379.25670,0.02238
1377.76691,0.05076
1376.27712,0.01331
1374.78733,0.01895
1373.29755,0.01464
1371.80776,0.01097
1370.31797,0.04270
1368.82818,0.04918
1367.33839,0.05568
1365.84860,0.04722
1364.35881,0.06033
1362.86903,0.07377
1361.37924,0.07569
1359.88945,0.09917
1358.39966,0.12236
1356.90987,0.13184
1355.42008,0.19254
1353.93030,0.28134
1352.44051,0.30198
1350.95072,0.32264
1349.46093,0.39685
1347.97114,0.47078
1346.48135,0.54567
1344.99156,0.61371
1343.50178,0.68334
1342.01199,0.77796
1340.52220,0.87448
1339.03241,0.93732
1337.54262,0.98770
1336.05283,1.01360
1334.56305,1.03953
1333.07326,1.03879
1331.58347,1.00812
1330.09368,1.02991
1328.60389,1.02207
1327.11410,0.99023
1325.62432,0.97526
1324.13453,0.92505
1322.64474,0.86550
1321.15495,0.81160
1319.66516,0.79688
1318.17537,0.78220
1316.68558,0.74085
1315.19580,0.64460
1313.70601,0.63420
1312.21622,0.62476
1310.72643,0.56072
1309.23664,0.51638
1307.74685,0.48236
1306.25707,0.42339
1304.76728,0.40674
1303.27749,0.39012
1301.78770,0.33872
1300.29791,0.31387
1298.80812,0.25316
1297.31834,0.22836
1295.82855,0.18268
1294.33876,0.16885
1292.84897,0.14632
1291.35918,0.10570
1289.86939,0.10365
1288.37960,0.10163
1286.88982,0.08263
1285.40003,0.09330
1283.91024,0.10024
1282.42045,0.09223
1280.93066,0.05335
1279.44087,0.06911
1277.95109,0.05743
1276.46130,0.03704
1274.97151,0.03384
1273.48172,0.03066
1271.99193,0.04966
1270.50214,0.04372
1269.01235,0.03843
1267.52257,0.05283
1266.03278,0.03417
1264.54299,0.04144
1263.05320,0.04281
1261.56341,0.03202
1260.07362,0.02126
1258.58384,0.01895
1257.09405,0.02947
1255.60426,0.00973
1254.11447,0.04714
1252.62468,0.03962
1251.13489,0.04243
1249.64511,0.04339
1248.15532,0.01785
1246.66553,0.02385
1245.17574,0.02988
1243.68595,0.01097
1242.19616,0.02098
1240.70637,0.03882
1239.21659,0.03952
1237.72680,0.03619
1236.23701,0.03725
1234.74722,0.03334
1233.25743,0.02961
1231.76764,0.02591
1230.27786,0.02676
1228.78807,0.01951
1227.29828,0.02010
1225.80849,0.01571
1224.31870,0.02134
1222.82891,0.01170
1221.33912,0.01769
1219.84934,0.02386
1218.35955,0.03005
1216.86976,0.06233
1215.37997,0.07716
1213.89018,0.06892
1212.40039,0.08879
1210.91061,0.06811
1209.42082,0.06774
1207.93103,0.07239
1206.44124,0.07707
1204.95145,0.06429
1203.46166,0.07182
1201.97188,0.03818
1200.48209,0.04420
1198.99230,0.04869
1197.50251,0.05320
1196.01272,0.03589
1194.52293,0.03452
1193.03314,0.03318
1191.54336,0.04622
1190.05357,0.03306
1188.56378,0.03741
1187.07399,0.03772
1185.58420,0.02215
1184.09441,0.02626
1182.60463,0.02774
1181.11484,0.02924
1179.62505,0.02531
1178.13526,0.02515
1176.64547,0.01097
1175.15568,0.01982
1173.66589,0.02683
1172.17611,0.02013
1170.68632,0.02390
1169.19653,0.02771
1167.70674,0.03887
1166.21695,0.02072
1164.72716,0.05190
1163.23738,0.05253
1161.74759,0.04787
1160.25780,0.04792
1158.76801,0.05845
1157.27822,0.06901
1155.78843,0.07350
1154.29865,0.08488
1152.80886,0.08880
1151.31907,0.10804
1149.82928,0.10389
1148.33949,0.11881
1146.84970,0.12501
1145.35991,0.13123
1143.87013,0.15215
1142.38034,0.17591
1140.89055,0.15287
1139.40076,0.16044
1137.91097,0.18833
1136.42118,0.20438
1134.93140,0.20079
1133.44161,0.19723
1131.95182,0.25143
1130.46203,0.24042
1128.97224,0.24162
1127.48245,0.21474
1125.99266,0.25500
1124.50288,0.26688
1123.01309,0.25054
1121.52330,0.23422
1120.03351,0.24055
1118.54372,0.23848
1117.05393,0.22552
1115.56415,0.26345
1114.07436,0.23898
1112.58457,0.23998
1111.09478,0.24100
1109.60499,0.24719
1108.11520,0.23344
1106.62542,0.26590
1105.13563,0.24970
1103.64584,0.25724
1102.15605,0.23203
1100.66626,0.22870
1099.17647,0.22540
1097.68668,0.22024
1096.19690,0.22322
1094.70711,0.19970
1093.21732,0.20867
1091.72753,0.21266
1090.23774,0.19889
1088.74795,0.18514
1087.25817,0.18828
1085.76838,0.18675
1084.27859,0.16216
1082.78880,0.14757
1081.29901,0.15611
1079.80922,0.16342
1078.31943,0.17638
1076.82965,0.18936
1075.33986,0.20080
1073.85007,0.21976
1072.36028,0.23906
1070.87049,0.23372
1069.38070,0.26868
1067.89092,0.26604
1066.40113,0.26343
1064.91134,0.33373
1063.42155,0.43089
1061.93176,0.52464
1060.44197,0.61092
1058.95219,0.67632
1057.46240,0.74565
1055.97261,0.81499
1054.48282,0.87610
1052.99303,0.95564
1051.50324,0.98340
1050.01345,0.95344
1048.52367,0.97500
1047.03388,0.94447
1045.54409,0.91396
1044.05430,0.87911
1042.56451,0.81089
1041.07472,0.71897
1039.58494,0.69480
1038.09515,0.62509
1036.60536,0.58334
1035.11557,0.54161
1033.62578,0.47697
1032.13599,0.42328
1030.64620,0.35213
1029.15642,0.30691
1027.66663,0.28575
1026.17684,0.26462
1024.68705,0.23633
1023.19726,0.21368
1021.70747,0.17639
1020.21769,0.15691
1018.72790,0.13590
1017.23811,0.13426
1015.74832,0.13265
1014.25853,0.10921
1012.76874,0.10640
1011.27896,0.13857
1009.78917,0.13144
1008.29938,0.12090
1006.80959,0.10352
1005.31980,0.08616
1003.83001,0.05884
1002.34022,0.03498
1000.85044,0.04797
999.36065,0.06380
997.87086,0.07965
996.38107,0.09552
994.89128,0.10268
993.40149,0.11892
991.91171,0.12769
990.42192,0.15084
988.93213,0.14561
987.44234,0.13651
985.95255,0.12743
984.46276,0.12291
982.97297,0.13557
981.48319,0.11424
979.99340,0.10167
978.50361,0.08460
977.01382,0.06756
975.52403,0.05007
974.03424,0.04228
972.54446,0.01860
971.05467,0.03178
969.56488,0.02375
968.07509,0.02043
966.58530,0.01714
965.09551,0.03790
963.60573,0.02779
962.11594,0.01084
960.62615,0.01754
959.13636,0.02193
957.64657,0.02635
956.15678,0.01097
954.66699,0.02977
953.17721,0.05016
951.68742,0.04967
950.19763,0.06277
948.70784,0.07590
947.21805,0.07954
945.72826,0.08164
944.23848,0.09375
942.74869,0.11400
941.25890,0.12398
939.76911,0.13850
938.27932,0.15306
936.78953,0.18090
935.29974,0.19035
933.80996,0.22854
932.32017,0.24990
930.83038,0.25552
929.34059,0.26117
927.85080,0.30195
926.36101,0.32529
924.87123,0.38360
923.38144,0.47408
921.89165,0.53244
920.40186,0.59083
918.91207,0.67483
917.42228,0.80693
915.93250,0.94841
914.44271,1.16045
912.95292,1.24424
911.46313,1.32805
909.97334,1.50833
908.48355,1.68427
906.99376,1.88457
905.50398,1.96412
904.01419,1.98205
902.52440,2.00000
901.03461,1.97163
899.54482,1.90802
898.05503,1.77420
896.56525,1.60421
895.07546,1.48324
893.58567,1.36230
892.09588,1.08752
890.60609,0.83960
889.11630,0.63165
887.62651,0.47929
886.13673,0.41511
884.64694,0.35097
883.15715,0.25142
881.66736,0.20028
880.17757,0.14603
878.68778,0.11304
877.19800,0.08007
875.70821,0.09082
874.21842,0.05041
872.72863,0.03063
871.23884,0.01648
869.74905,0.01485
868.25927,0.01324
866.76948,0.03225
865.27969,0.03163
863.78990,0.05444
862.30011,0.05199
860.81032,0.05940
859.32053,0.06683
857.83075,0.08443
856.34096,0.07896
854.85117,0.09006
853.36138,0.09275
851.87159,0.10421
850.38180,0.11569
848.89202,0.14749
847.40223,0.15590
845.91244,0.17495
844.42265,0.17420
842.93286,0.17348
841.44307,0.18917
839.95329,0.22361
838.46350,0.23841
836.97371,0.23326
835.48392,0.23375
833.99413,0.23427
832.50434,0.24480
831.01455,0.23413
829.52477,0.20601
828.03498,0.19851
826.54519,0.17107
825.05540,0.14364
823.56561,0.14777
822.07582,0.13787
820.58604,0.11552
819.09625,0.10676
817.60646,0.09804
816.11667,0.11945
814.62688,0.11530
813.13709,0.09681
811.64730,0.10238
810.15752,0.10641
808.66773,0.11047
807.17794,0.13266
805.68815,0.12054
804.19836,0.09689
802.70857,0.10854
801.21879,0.12022
799.72900,0.11038
798.23921,0.11961
796.74942,0.11013
795.25963,0.10801
793.76984,0.10592
792.28006,0.08934
790.79027,0.13334
789.30048,0.14489
787.81069,0.19206
786.32090,0.19602
784.83111,0.20001
783.34132,0.23476
781.85154,0.25861
780.36175,0.30091
778.87196,0.31545
777.38217,0.33001
775.89238,0.35334
774.40259,0.37139
772.91281,0.36262
771.42302,0.35965
769.93323,0.35671
768.44344,0.32773
766.95365,0.28035
765.46386,0.25829
763.97407,0.22688
762.48429,0.19473
760.99450,0.16259
759.50471,0.13969
758.01492,0.09309
756.52513,0.10394
755.03534,0.09344
753.54556,0.08297
752.05577,0.09108
750.56598,0.06771
749.07619,0.07026
747.58640,0.06191
746.09661,0.05358
744.60683,0.06526
743.11704,0.05168
741.62725,0.01097
740.13746,0.01973
738.64767,0.02851
737.15788,0.03171
735.66809,0.02244
734.17831,0.02349
732.68852,0.02629
731.19873,0.02911
729.70894,0.02369
728.21915,0.02953
726.72936,0.02603
725.23958,0.01475
723.74979,0.02480
722.26000,0.03487
720.77021,0.04731
719.28042,0.01265
717.79063,0.03849
716.30084,0.02768
714.81106,0.01689
713.32127,0.01097
711.83148,0.03753
710.34169,0.05350
708.85190,0.05202
707.36211,0.05057
705.87233,0.06412
704.38254,0.03119
702.89275,0.05228
701.40296,0.06497
699.91317,0.07768
698.42338,0.08886
696.93360,0.12004
695.44381,0.11691
693.95402,0.12191
692.46423,0.12695
690.97444,0.13201
689.48465,0.13303
687.99486,0.17559
686.50508,0.18806
685.01529,0.20055
683.52550,0.24319
682.03571,0.25151
680.54592,0.26236
679.05613,0.26512
677.56635,0.26791
676.07656,0.26603
674.58677,0.28354
673.09698,0.25081
671.60719,0.24215
670.11740,0.23351
668.62761,0.20305
667.13783,0.17635
665.64804,0.16404
664.15825,0.15175
662.66846,0.14012
661.17867,0.08169
659.68888,0.07010
658.19910,0.06509
656.70931,0.06010
655.21952,0.06731
653.72973,0.05021
652.23994,0.05622
650.75015,0.05305
649.26037,0.04990
647.77058,0.04507
646.28079,0.05492
644.79100,0.05888
643.30121,0.04506
641.81142,0.03127
640.32163,0.04029
638.83185,0.05308
637.34206,0.02470
635.85227,0.02661
634.36248,0.02855
632.87269,0.01460
631.38290,0.01097
629.89312,0.01645
628.40333,0.01431
626.91354,0.01220
625.42375,0.01057
623.93396,0.04081
622.44417,0.04798
620.95438,0.05517
619.46460,0.05645
617.97481,0.05932
616.48502,0.07127
614.99523,0.08293
613.50544,0.09461
612.01565,0.13004
610.52587,0.15363
609.03608,0.17756
607.54629,0.19527
606.05650,0.21301
604.56671,0.26198
603.07692,0.29194
601.58714,0.30585
600.09735,0.31978
598.60756,0.34139
597.11777,0.37706
595.62798,0.41152
594.13819,0.40745
592.64840,0.40340
591.15862,0.41546
589.66883,0.32579
588.17904,0.29888
586.68925,0.25810
585.19946,0.21735
583.70967,0.16898
582.21989,0.13281
580.73010,0.12178
579.24031,0.11078
577.75052,0.07687
576.26073,0.04672
574.77094,0.06061
573.28115,0.06999
571.79137,0.07940
570.30158,0.06839
568.81179,0.08893
567.32200,0.09280
565.83221,0.09669
564.34242,0.11512
562.85264,0.13950
561.36285,0.15548
559.87306,0.16727
558.38327,0.17909
556.89348,0.16019
555.40369,0.17908
553.91391,0.17849
552.42412,0.17792
550.93433,0.20156
549.44454,0.20401
547.95475,0.21584
546.46496,0.22068
544.97517,0.22554
543.48539,0.25243
541.99560,0.27341
540.50581,0.28006
539.01602,0.28674
537.52623,0.36741
536.03644,0.36664
534.54666,0.42146
533.05687,0.43978
531.56708,0.45813
530.07729,0.49523
528.58750,0.54015
527.09771,0.55670
525.60792,0.57327
524.11814,0.63638
522.62835,0.66205
521.13856,0.73207
519.64877,0.75576
518.15898,0.77948
516.66919,0.79464
515.17941,0.79516
513.68962,0.78977
512.19983,0.78441
510.71004,0.73912
509.22025,0.71539
507.73046,0.63051
506.24068,0.59185
504.75089,0.55322
503.26110,0.47653
501.77131,0.40018
500.28152,0.35366
498.79173,0.30716
497.30194,0.19531
495.81216,0.13341
494.32237,0.13053
492.83258,0.12767
491.34279,0.09862
489.85300,0.09831
488.36321,0.09833
486.87343,0.08403
485.38364,0.06974
483.89385,0.06485
482.40406,0.09837
480.91427,0.10367
479.42448,0.10899
477.93469,0.12635
476.44491,0.16715
474.95512,0.17536
473.46533,0.18359
471.97554,0.20542
470.48575,0.22447
468.99596,0.21171
467.50618,0.20490
466.01639,0.19811
464.52660,0.18605
463.03681,0.12813
461.54702,0.11534
460.05723,0.10257
458.56745,0.06251
457.07766,0.06181
455.58787,0.04209
454.09808,0.02239
452.60829,0.04080
451.11850,0.04301
449.62871,0.02698
448.13893,0.01097
446.64914,0.03601
445.15935,0.05328
443.66956,0.04341
442.17977,0.05043
440.68998,0.05747
439.20020,0.05860
437.71041,0.08691
436.22062,0.08123
434.73083,0.07557
433.24104,0.08336
431.75125,0.05309
430.26146,0.05468
428.77168,0.05630
427.28189,0.06169
425.79210,0.06773
424.30231,0.07395
422.81252,0.08019
421.32273,0.07850
419.83295,0.05873
418.34316,0.06489
416.85337,0.07108
415.36358,0.03921
413.87379,0.04794
412.38400,0.05186
410.89422,0.05581
409.40443,0.04495
407.91464,0.05159
406.42485,0.06326
404.93506,0.07245
403.44527,0.08167
401.95548,0.06126
400.46570,0.07053
398.97591,0.05469
397.48612,0.03888
395.99633,0.05384
394.50654,0.04916
393.01675,0.04029
391.52697,0.03145
390.03718,0.04249
388.54739,0.03764
387.05760,0.03750
385.56781,0.03738
384.07802,0.06569
382.58824,0.03160
381.09845,0.02875
379.60866,0.02592
378.11887,0.03466
376.62908,0.01097
375.13929,0.01656
373.64950,0.02218
372.15972,0.03938
370.66993,0.03880
369.18014,0.04942
367.69035,0.06006
366.20056,0.05855
364.71077,0.02274
363.22099,0.01925
361.73120,0.01579
360.24141,0.02687
358.75162,0.03516
357.26183,0.05346
355.77204,0.07179
354.28225,0.08234
352.79247,0.06764
351.30268,0.07387
349.81289,0.08012
348.32310,0.07673
346.83331,0.06400
345.34352,0.05597
343.85374,0.04796
342.36395,0.04467
340.87416,0.04670
339.38437,0.03300
337.89458,0.01932
336.40479,0.04453
334.91501,0.04447
333.42522,0.04523
331.93543,0.04600
330.44564,0.03292
328.95585,0.04420
327.46606,0.03538
325.97627,0.02658
324.48649,0.03364
322.99670,0.04697
321.50691,0.02896
320.01712,0.01097
318.52733,0.03866
317.03754,0.08823
315.54776,0.12284
314.05797,0.15747
312.56818,0.12815
311.07839,0.08169
309.58860,0.05553
308.09881,0.02940
306.60902,0.04200
305.11924,0.03808
303.62945,0.02451
302.13966,0.01097
300.64987,0.01736
299.16008,0.01097
