1778.52000,0.00997
1777.03021,0.01145
1775.54042,0.00976
1774.05063,0.01335
1772.56085,0.00531
1771.07106,0.01831
1769.58127,0.01763
1768.09148,0.02246
1766.60169,0.01315
1765.11190,0.00683
1763.62212,0.00601
1762.13233,0.00431
1760.64254,0.01040
1759.15275,0.01195
1757.66296,0.02242
1756.17317,0.00803
1754.68339,0.00142
1753.19360,0.00581
1751.70381,0.01410
1750.21402,0.01053
1748.72423,0.01339
1747.23444,0.00873
1745.74465,0.01255
1744.25487,0.00886
1742.76508,0.01204
1741.27529,0.00565
1739.78550,0.00431
1738.29571,0.01375
1736.80592,0.02139
1735.31614,0.01900
1733.82635,0.01343
1732.33656,0.00538
1730.84677,0.00694
1729.35698,0.00374
1727.86719,0.01129
1726.37740,0.00653
1724.88762,0.01070
1723.39783,0.00919
1721.90804,0.01045
1720.41825,0.00921
1718.92846,0.01211
1717.43867,0.00864
1715.94889,0.00976
1714.45910,0.01890
1712.96931,0.00431
1711.47952,0.01253
1709.98973,0.01552
1708.49994,0.00780
1707.01016,0.00605
1705.52037,0.00431
1704.03058,0.01013
1702.54079,0.01689
1701.05100,0.01567
1699.56121,0.00877
1698.07142,0.01331
1696.58164,0.01080
1695.09185,0.01517
1693.60206,0.01430
1692.11227,0.01483
1690.62248,0.03411
1689.13269,0.01733
1687.64291,0.01451
1686.15312,0.01902
1684.66333,0.02081
1683.17354,0.02285
1681.68375,0.02264
1680.19396,0.01697
1678.70417,0.02114
1677.21439,0.02580
1675.72460,0.04509
1674.23481,0.03061
1672.74502,0.03260
1671.25523,0.03872
1669.76544,0.04578
1668.27566,0.04738
1666.78587,0.04352
1665.29608,0.04495
1663.80629,0.06375
1662.31650,0.06591
1660.82671,0.05484
1659.33693,0.07486
1657.84714,0.07458
1656.35735,0.06336
1654.86756,0.06518
1653.37777,0.06999
1651.88798,0.07392
1650.39819,0.06599
1648.90841,0.05717
1647.41862,0.07853
1645.92883,0.08061
1644.43904,0.08271
1642.94925,0.08290
1641.45946,0.07877
1639.96968,0.07032
1638.47989,0.07629
1636.99010,0.06721
1635.50031,0.08694
1634.01052,0.07379
1632.52073,0.09219
1631.03094,0.08938
1629.54116,0.09663
1628.05137,0.09455
1626.56158,0.07445
1625.07179,0.06556
1623.58200,0.07017
1622.09221,0.05882
1620.60243,0.09912
1619.11264,0.08553
1617.62285,0.08202
1616.13306,0.08927
1614.64327,0.08237
1613.15348,0.07117
1611.66370,0.08488
1610.17391,0.08880
1608.68412,0.08909
1607.19433,0.07981
1605.70454,0.09682
1604.21475,0.08976
1602.72496,0.08272
1601.23518,0.08016
1599.74539,0.08150
1598.25560,0.08607
1596.76581,0.07993
1595.27602,0.09597
1593.78623,0.09787
1592.29645,0.08449
1590.80666,0.08849
1589.31687,0.06214
1587.82708,0.05683
1586.33729,0.06205
1584.84750,0.08579
1583.35771,0.08535
1581.86793,0.07328
1580.37814,0.06078
1578.88835,0.05973
1577.39856,0.05550
1575.90877,0.06569
1574.41898,0.05168
1572.92920,0.04593
1571.43941,0.05071
1569.94962,0.04420
1568.45983,0.03772
1566.97004,0.04851
1565.48025,0.01706
1563.99047,0.02127
1562.50068,0.01340
1561.01089,0.03297
1559.52110,0.01807
1558.03131,0.01758
1556.54152,0.00935
1555.05173,0.01759
1553.56195,0.01398
1552.07216,0.01405
1550.58237,0.01254
1549.09258,0.01882
1547.60279,0.00000
1546.11300,0.00176
1544.62322,0.00538
1543.13343,0.00376
1541.64364,0.01907
1540.15385,0.01168
1538.66406,0.00431
1537.17427,0.01319
1535.68448,0.03419
1534.19470,0.01410
1532.70491,0.00431
1531.21512,0.01345
1529.72533,0.01850
1528.23554,0.00964
1526.74575,0.03506
1525.25597,0.02031
1523.76618,0.04030
1522.27639,0.04867
1520.78660,0.05181
1519.29681,0.03395
1517.80702,0.03623
1516.31724,0.03692
1514.82745,0.04929
1513.33766,0.04867
1511.84787,0.04807
1510.35808,0.05572
1508.86829,0.05380
1507.37850,0.05692
1505.88872,0.04980
1504.39893,0.06302
1502.90914,0.03813
1501.41935,0.05665
1499.92956,0.07566
1498.43977,0.06500
1496.94999,0.07470
1495.46020,0.08738
1493.97041,0.09895
1492.48062,0.11762
1490.99083,0.12901
1489.50104,0.11964
1488.01125,0.13667
1486.52147,0.15373
1485.03168,0.15928
1483.54189,0.18929
1482.05210,0.19671
1480.56231,0.21581
1479.07252,0.22396
1477.58274,0.22735
1476.09295,0.23167
1474.60316,0.24401
1473.11337,0.28470
1471.62358,0.25940
1470.13379,0.26747
1468.64401,0.25775
1467.15422,0.28369
1465.66443,0.29903
1464.17464,0.31440
1462.68485,0.34064
1461.19506,0.38723
1459.70527,0.41580
1458.21549,0.48460
1456.72570,0.51688
1455.23591,0.59554
1453.74612,0.61964
1452.25633,0.67164
1450.76654,0.69876
1449.27676,0.72019
1447.78697,0.70784
1446.29718,0.69026
1444.80739,0.67636
1443.31760,0.66248
1441.82781,0.62122
1440.33802,0.55623
1438.84824,0.52644
1437.35845,0.51654
1435.86866,0.51923
1434.37887,0.52355
1432.88908,0.53451
1431.39929,0.58798
1429.90951,0.62709
1428.41972,0.69112
1426.92993,0.77162
1425.44014,0.83479
1423.95035,0.86097
1422.46056,0.88718
1420.97078,0.93899
1419.48099,0.94310
1417.99120,0.97646
1416.50141,0.95000
1415.01162,0.90323
1413.52183,0.83731
1412.03204,0.80704
1410.54226,0.72814
1409.05247,0.65680
1407.56268,0.61335
1406.07289,0.54115
1404.58310,0.51797
1403.09331,0.49481
1401.60353,0.46197
1400.11374,0.38301
1398.62395,0.34337
1397.13416,0.32750
1395.64437,0.26187
1394.15458,0.21750
1392.66479,0.19279
1391.17501,0.17269
1389.68522,0.13136
1388.19543,0.10902
1386.70564,0.09983
1385.21585,0.09067
1383.72606,0.07730
1382.23628,0.04478
1380.74649,0.04928
1379.25670,0.02434
1377.76691,0.03277
1376.27712,0.02250
1374.78733,0.01591
1373.29755,0.00431
1371.80776,0.03353
1370.31797,0.03971
1368.82818,0.03266
1367.33839,0.02564
1365.84860,0.03006
1364.35881,0.03930
1362.86903,0.04468
1361.37924,0.05671
1359.88945,0.09846
1358.39966,0.10346
1356.90987,0.16422
1355.42008,0.18685
1353.93030,0.24423
1352.44051,0.27309
1350.95072,0.30196
1349.46093,0.38819
1347.97114,0.47354
1346.48135,0.52624
1344.99156,0.59062
1343.50178,0.67786
1342.01199,0.71945
1340.52220,0.74004
1339.03241,0.78921
1337.54262,0.84320
1336.05283,0.88877
1334.56305,0.93436
1333.07326,0.98202
1331.58347,0.96393
1330.09368,0.95203
1328.60389,0.85952
1327.11410,0.88239
1325.62432,0.90734
1324.13453,0.85990
1322.64474,0.83624
1321.15495,0.74614
1319.66516,0.71122
1318.17537,0.67633
1316.68558,0.65140
1315.19580,0.59703
1313.70601,0.59133
1312.21622,0.57538
1310.72643,0.50669
1309.23664,0.47663
1307.74685,0.45687
1306.25707,0.42137
1304.76728,0.39389
1303.27749,0.36644
1301.78770,0.34175
1300.29791,0.29264
1298.80812,0.26663
1297.31834,0.21666
1295.82855,0.16375
1294.33876,0.14809
1292.84897,0.12880
1291.35918,0.10428
1289.86939,0.09840
1288.37960,0.09255
1286.88982,0.09848
1285.40003,0.10261
1283.91024,0.09055
1282.42045,0.09336
1280.93066,0.08271
1279.44087,0.06661
1277.95109,0.04231
1276.46130,0.03722
1274.97151,0.03729
1273.48172,0.03739
1271.99193,0.03649
1270.50214,0.03926
1269.01235,0.02858
1267.52257,0.02821
1266.03278,0.00798
1264.54299,0.01725
1263.05320,0.00781
1261.56341,0.01016
1260.07362,0.01253
1258.58384,0.01755
1257.09405,0.00638
1255.60426,0.00803
1254.11447,0.01084
1252.62468,0.00431
1251.13489,0.02109
1249.64511,0.00592
1248.15532,0.01817
1246.66553,0.02041
1245.17574,0.02266
1243.68595,0.02494
1242.19616,0.00966
1240.70637,0.00605
1239.21659,0.02028
1237.72680,0.01832
1236.23701,0.03991
1234.74722,0.02018
1233.25743,0.01372
1231.76764,0.00729
1230.27786,0.00613
1228.78807,0.00431
1227.29828,0.01035
1225.80849,0.01733
1224.31870,0.01657
1222.82891,0.02063
1221.33912,0.03636
1219.84934,0.04241
1218.35955,0.04848
1216.86976,0.05629
1215.37997,0.04060
1213.89018,0.06993
1212.40039,0.07119
1210.91061,0.07544
1209.42082,0.06693
1207.93103,0.07134
1206.44124,0.07578
1204.95145,0.06916
1203.46166,0.06394
1201.97188,0.07337
1200.48209,0.07002
1198.99230,0.07173
1197.50251,0.05655
1196.01272,0.06653
1194.52293,0.05837
1193.03314,0.05024
1191.54336,0.03996
1190.05357,0.02582
1188.56378,0.02267
1187.07399,0.01475
1185.58420,0.02786
1184.09441,0.03529
1182.60463,0.03429
1181.11484,0.03332
1179.62505,0.01318
1178.13526,0.01523
1176.64547,0.00633
1175.15568,0.00431
1173.66589,0.02066
1172.17611,0.02265
1170.68632,0.02397
1169.19653,0.02531
1167.70674,0.02509
1166.21695,0.03219
1164.72716,0.02859
1163.23738,0.02660
1161.74759,0.04018
1160.25780,0.05926
1158.76801,0.06683
1157.27822,0.07442
1155.78843,0.09768
1154.29865,0.07529
1152.80886,0.09198
1151.31907,0.10344
1149.82928,0.12794
1148.33949,0.12460
1146.84970,0.12928
1145.35991,0.13399
1143.87013,0.12227
1142.38034,0.12177
1140.89055,0.15487
1139.40076,0.16127
1137.91097,0.16152
1136.42118,0.18327
1134.93140,0.19683
1133.44161,0.21041
1131.95182,0.20939
1130.46203,0.22918
1128.97224,0.22867
1127.48245,0.23526
1125.99266,0.20488
1124.50288,0.21791
1123.01309,0.22412
1121.52330,0.23036
1120.03351,0.25717
1118.54372,0.23719
1117.05393,0.23504
1115.56415,0.24023
1114.07436,0.21529
1112.58457,0.19974
1111.09478,0.18422
1109.60499,0.20229
1108.11520,0.22405
1106.62542,0.22025
1105.13563,0.20847
1103.64584,0.20929
1102.15605,0.19094
1100.66626,0.19408
1099.17647,0.19726
1097.68668,0.19291
1096.19690,0.18608
1094.70711,0.18202
1093.21732,0.18300
1091.72753,0.20411
1090.23774,0.19315
1088.74795,0.18221
1087.25817,0.17347
1085.76838,0.17800
1084.27859,0.17548
1082.78880,0.19011
1081.29901,0.19631
1079.80922,0.18815
1078.31943,0.18834
1076.82965,0.18857
1075.33986,0.21131
1073.85007,0.23180
1072.36028,0.22650
1070.87049,0.24018
1069.38070,0.27810
1067.89092,0.30302
1066.40113,0.32797
1064.91134,0.37829
1063.42155,0.45217
1061.93176,0.55303
1060.44197,0.63289
1058.95219,0.69907
1057.46240,0.74849
1055.97261,0.79794
1054.48282,0.89549
1052.99303,0.96999
1051.50324,0.97120
1050.01345,0.99276
1048.52367,0.98396
1047.03388,0.98375
1045.54409,0.98357
1044.05430,0.91705
1042.56451,0.87912
1041.07472,0.78501
1039.58494,0.70966
1038.09515,0.60487
1036.60536,0.57251
1035.11557,0.54018
1033.62578,0.48503
1032.13599,0.41642
1030.64620,0.33893
1029.15642,0.29939
1027.66663,0.27254
1026.17684,0.24572
1024.68705,0.21241
1023.19726,0.19444
1021.70747,0.15524
1020.21769,0.14325
1018.72790,0.12694
1017.23811,0.12231
1015.74832,0.11770
1014.25853,0.11860
1012.76874,0.09896
1011.27896,0.09557
1009.78917,0.07392
1008.29938,0.03700
1006.80959,0.03379
1005.31980,0.03061
1003.83001,0.01317
1002.34022,0.02455
1000.85044,0.03891
999.36065,0.03183
997.87086,0.04064
996.38107,0.04948
994.89128,0.05938
993.40149,0.07934
991.91171,0.09545
990.42192,0.09308
988.93213,0.11815
987.44234,0.13387
985.95255,0.14962
984.46276,0.15146
982.97297,0.13710
981.48319,0.10382
979.99340,0.08768
978.50361,0.07717
977.01382,0.06668
975.52403,0.04011
974.03424,0.02933
972.54446,0.01263
971.05467,0.02474
969.56488,0.01700
968.07509,0.01180
966.58530,0.00662
965.09551,0.00420
963.60573,0.01834
962.11594,0.02039
960.62615,0.02864
959.13636,0.01646
957.64657,0.00431
956.15678,0.00617
954.66699,0.00827
953.17721,0.02388
951.68742,0.02718
950.19763,0.03130
948.70784,0.03544
947.21805,0.05960
945.72826,0.07647
944.23848,0.08400
942.74869,0.07990
941.25890,0.09799
939.76911,0.10639
938.27932,0.11481
936.78953,0.15284
935.29974,0.17354
933.80996,0.19471
932.32017,0.21523
930.83038,0.22789
929.34059,0.24057
927.85080,0.25910
926.36101,0.27994
924.87123,0.29350
923.38144,0.31096
921.89165,0.35129
920.40186,0.39164
918.91207,0.50557
917.42228,0.65881
915.93250,0.80042
914.44271,0.99848
912.95292,1.10063
911.46313,1.20280
909.97334,1.42857
908.48355,1.66670
906.99376,1.80961
905.50398,1.92558
904.01419,1.96163
902.52440,1.99771
901.03461,2.00000
899.54482,1.97696
898.05503,1.85824
896.56525,1.64955
895.07546,1.49810
893.58567,1.34667
892.09588,1.09214
890.60609,0.84813
889.11630,0.67063
887.62651,0.50205
886.13673,0.43104
884.64694,0.36004
883.15715,0.26669
881.66736,0.19552
880.17757,0.13945
878.68778,0.11584
877.19800,0.09225
875.70821,0.06458
874.21842,0.04629
872.72863,0.04973
871.23884,0.03218
869.74905,0.03452
868.25927,0.03689
866.76948,0.03814
865.27969,0.01681
863.78990,0.04415
862.30011,0.05324
860.81032,0.06315
859.32053,0.07309
857.83075,0.09482
856.34096,0.10446
854.85117,0.11459
853.36138,0.13753
851.87159,0.14234
850.38180,0.14717
848.89202,0.17795
847.40223,0.21149
845.91244,0.22268
844.42265,0.23160
842.93286,0.24055
841.44307,0.24770
839.95329,0.25030
838.46350,0.27919
836.97371,0.29166
835.48392,0.29662
833.99413,0.30160
832.50434,0.28674
831.01455,0.25614
829.52477,0.25571
828.03498,0.20323
826.54519,0.18926
825.05540,0.17531
823.56561,0.20148
822.07582,0.17582
820.58604,0.16092
819.09625,0.15415
817.60646,0.14741
816.11667,0.14241
814.62688,0.14314
813.13709,0.12402
811.64730,0.14238
810.15752,0.14581
808.66773,0.14927
807.17794,0.16062
805.68815,0.13272
804.19836,0.14755
802.70857,0.15304
801.21879,0.15856
799.72900,0.16387
798.23921,0.15390
796.74942,0.14624
795.25963,0.13986
793.76984,0.13351
792.28006,0.14762
790.79027,0.15216
789.30048,0.17957
787.81069,0.21820
786.32090,0.23469
784.83111,0.25121
783.34132,0.28466
781.85154,0.30374
780.36175,0.34911
778.87196,0.36161
777.38217,0.37414
775.89238,0.41913
774.40259,0.44564
772.91281,0.43243
771.42302,0.40953
769.93323,0.38666
768.44344,0.33401
766.95365,0.26402
765.46386,0.23700
763.97407,0.20200
762.48429,0.18462
760.99450,0.16726
759.50471,0.13006
758.01492,0.09493
756.52513,0.10415
755.03534,0.09762
753.54556,0.09112
752.05577,0.06386
750.56598,0.05490
749.07619,0.06560
747.58640,0.05726
746.09661,0.04893
744.60683,0.04075
743.11704,0.03191
741.62725,0.02263
740.13746,0.02126
738.64767,0.01992
737.15788,0.02008
735.66809,0.00610
734.17831,0.00860
732.68852,0.01055
731.19873,0.01252
729.70894,0.01029
728.21915,0.02270
726.72936,0.00499
725.23958,0.00431
723.74979,0.01137
722.26000,0.01846
720.77021,0.00341
719.28042,0.01146
717.79063,0.01107
716.30084,0.00992
714.81106,0.00878
713.32127,0.01578
711.83148,0.02783
710.34169,0.02323
708.85190,0.01979
707.36211,0.01638
705.87233,0.03173
704.38254,0.02265
702.89275,0.04832
701.40296,0.04490
699.91317,0.04149
698.42338,0.05262
696.93360,0.07884
695.44381,0.08819
693.95402,0.09265
692.46423,0.09713
690.97444,0.11546
689.48465,0.15208
687.99486,0.14807
686.50508,0.16270
685.01529,0.17736
683.52550,0.19809
682.03571,0.20697
680.54592,0.22912
679.05613,0.23976
677.56635,0.25043
676.07656,0.27950
674.58677,0.25789
673.09698,0.20022
671.60719,0.18254
670.11740,0.16489
668.62761,0.17536
667.13783,0.15570
665.64804,0.14440
664.15825,0.13313
662.66846,0.09275
661.17867,0.07616
659.68888,0.06918
658.19910,0.05812
656.70931,0.04708
655.21952,0.02807
653.72973,0.04495
652.23994,0.04312
650.75015,0.04337
649.26037,0.04365
647.77058,0.04486
646.28079,0.03605
644.79100,0.04188
643.30121,0.03985
641.81142,0.03785
640.32163,0.05380
638.83185,0.02729
637.34206,0.01337
635.85227,0.00907
634.36248,0.00479
632.87269,0.00431
631.38290,0.01649
629.89312,0.01818
628.40333,0.01659
626.91354,0.01502
625.42375,0.02158
623.93396,0.02543
622.44417,0.02622
620.95438,0.02703
619.46460,0.04854
617.97481,0.05499
616.48502,0.06650
614.99523,0.08500
613.50544,0.10352
612.01565,0.13360
610.52587,0.18358
609.03608,0.21142
607.54629,0.22741
606.05650,0.24343
604.56671,0.31589
603.07692,0.34200
601.58714,0.35752
600.09735,0.37306
598.60756,0.42849
597.11777,0.44031
595.62798,0.42520
594.13819,0.42359
592.64840,0.42201
591.15862,0.35923
589.66883,0.30516
588.17904,0.27898
586.68925,0.25991
585.19946,0.24086
583.70967,0.20013
582.21989,0.14595
580.73010,0.12138
579.24031,0.09683
577.75052,0.08292
576.26073,0.05739
574.77094,0.05953
573.28115,0.05872
571.79137,0.05793
570.30158,0.04209
568.81179,0.07310
567.32200,0.07764
565.83221,0.08221
564.34242,0.13156
562.85264,0.14303
561.36285,0.16754
559.87306,0.18556
558.38327,0.20361
556.89348,0.19347
555.40369,0.19935
553.91391,0.19862
552.42412,0.19792
550.93433,0.23242
549.44454,0.23634
547.95475,0.23639
546.46496,0.23476
544.97517,0.23316
543.48539,0.25704
541.99560,0.27638
540.50581,0.28821
539.01602,0.30006
537.52623,0.35488
536.03644,0.41087
534.54666,0.40658
533.05687,0.43189
531.56708,0.45723
530.07729,0.51057
528.58750,0.56416
527.09771,0.57518
525.60792,0.58622
524.11814,0.66091
522.62835,0.70957
521.13856,0.76443
519.64877,0.78265
518.15898,0.80089
516.66919,0.84486
515.17941,0.87492
513.68962,0.87348
512.19983,0.87206
510.71004,0.84760
509.22025,0.74458
507.73046,0.69025
506.24068,0.64633
504.75089,0.60243
503.26110,0.52007
501.77131,0.40735
500.28152,0.35085
498.79173,0.29438
497.30194,0.24204
495.81216,0.19840
494.32237,0.18094
492.83258,0.16351
491.34279,0.12360
489.85300,0.08394
488.36321,0.07538
486.87343,0.07243
485.38364,0.06951
483.89385,0.08317
482.40406,0.09800
480.91427,0.11662
479.42448,0.13527
477.93469,0.15931
476.44491,0.15231
474.95512,0.17834
473.46533,0.20439
471.97554,0.21710
470.48575,0.20700
468.99596,0.21542
467.50618,0.20400
466.01639,0.19260
464.52660,0.14970
463.03681,0.12533
461.54702,0.11548
460.05723,0.10566
458.56745,0.09484
457.07766,0.07194
455.58787,0.06973
454.09808,0.06754
452.60829,0.04014
451.11850,0.00431
449.62871,0.00455
448.13893,0.00481
446.64914,0.01698
445.15935,0.01523
443.66956,0.03293
442.17977,0.04037
440.68998,0.04783
439.20020,0.05783
437.71041,0.05667
436.22062,0.05118
434.73083,0.04573
433.24104,0.04989
431.75125,0.04402
430.26146,0.04948
428.77168,0.05497
427.28189,0.04507
425.79210,0.03724
424.30231,0.03309
422.81252,0.02897
421.32273,0.04475
419.83295,0.04318
418.34316,0.04119
416.85337,0.03922
415.36358,0.02859
413.87379,0.02667
412.38400,0.03391
410.89422,0.04118
409.40443,0.05509
407.91464,0.03316
406.42485,0.01629
404.93506,0.02326
403.44527,0.03026
401.95548,0.02586
400.46570,0.03108
398.97591,0.03050
397.48612,0.02994
395.99633,0.02541
394.50654,0.02044
393.01675,0.02670
391.52697,0.03160
390.03718,0.02122
388.54739,0.02343
387.05760,0.02087
385.56781,0.01833
384.07802,0.01925
382.58824,0.02726
381.09845,0.01578
379.60866,0.00431
378.11887,0.01424
376.62908,0.01117
375.13929,0.01337
373.64950,0.01561
372.15972,0.02357
370.66993,0.03682
369.18014,0.03707
367.69035,0.03736
366.20056,0.04440
364.71077,0.06335
363.22099,0.05640
361.73120,0.04947
360.24141,0.04016
358.75162,0.03089
357.26183,0.02471
355.77204,0.01857
354.28225,0.05139
352.79247,0.06688
351.30268,0.06983
349.81289,0.07280
348.32310,0.09818
346.83331,0.11468
345.34352,0.09785
343.85374,0.08105
342.36395,0.06221
340.87416,0.03564
339.38437,0.03351
337.89458,0.03142
336.40479,0.01278
334.91501,0.03072
333.42522,0.01751
331.93543,0.00431
330.44564,0.03109
328.95585,0.04144
327.46606,0.05466
325.97627,0.06792
324.48649,0.06098
322.99670,0.02757
321.50691,0.03336
320.01712,0.03917
318.52733,0.04672
317.03754,0.07737
315.54776,0.08017
314.05797,0.08299
312.56818,0.10229
311.07839,0.11316
309.58860,0.10555
308.09881,0.09797
306.60902,0.05660
305.11924,0.06414
303.62945,0.05263
302.13966,0.04114
300.64987,0.01815
299.16008,0.00431
