1778.52000,0.00000
1777.03021,0.00897
1775.54042,0.00966
1774.05063,0.01440
1772.56085,0.00283
1771.07106,0.01778
1769.58127,0.02259
1768.09148,0.00975
1766.60169,0.01086
1765.11190,0.01681
1763.62212,0.00592
1762.13233,0.00469
1760.64254,0.02302
1759.15275,0.01033
1757.66296,0.01426
1756.17317,0.00644
1754.68339,0.01255
1753.19360,0.01575
1751.70381,0.01201
1750.21402,0.01044
1748.72423,0.01638
1747.23444,0.00469
1745.74465,0.00931
1744.25487,0.00807
1742.76508,0.01755
1741.27529,0.01073
1739.78550,0.01572
1738.29571,0.02046
1736.80592,0.01666
1735.31614,0.02626
1733.82635,0.01930
1732.33656,0.00834
1730.84677,0.01026
1729.35698,0.00096
1727.86719,0.01375
1726.37740,0.01828
1724.88762,0.00837
1723.39783,0.01937
1721.90804,0.02048
1720.41825,0.01011
1718.92846,0.00512
1717.43867,0.00793
1715.94889,0.01505
1714.45910,0.01524
1712.96931,0.01491
1711.47952,0.00711
1709.98973,0.00469
1708.49994,0.00803
1707.01016,0.01247
1705.52037,0.01694
1704.03058,0.02464
1702.54079,0.00934
1701.05100,0.02458
1699.56121,0.02218
1698.07142,0.02356
1696.58164,0.01130
1695.09185,0.01540
1693.60206,0.01417
1692.11227,0.02714
1690.62248,0.02676
1689.13269,0.02373
1687.64291,0.02955
1686.15312,0.02737
1684.66333,0.02039
1683.17354,0.03190
1681.68375,0.02792
1680.19396,0.02530
1678.70417,0.04251
1677.21439,0.03164
1675.72460,0.03230
1674.23481,0.03727
1672.74502,0.04333
1671.25523,0.03871
1669.76544,0.04375
1668.27566,0.05845
1666.78587,0.04694
1665.29608,0.06570
1663.80629,0.06388
1662.31650,0.06503
1660.82671,0.05282
1659.33693,0.08907
1657.84714,0.06433
1656.35735,0.05727
1654.86756,0.06871
1653.37777,0.07294
1651.88798,0.06676
1650.39819,0.08469
1648.90841,0.08954
1647.41862,0.07861
1645.92883,0.07373
1644.43904,0.06888
1642.94925,0.08238
1641.45946,0.07316
1639.96968,0.07440
1638.47989,0.08636
1636.99010,0.07936
1635.50031,0.07558
1634.01052,0.08013
1632.52073,0.07506
1631.03094,0.06146
1629.54116,0.08669
1628.05137,0.08009
1626.56158,0.07967
1625.07179,0.08677
1623.58200,0.09363
1622.09221,0.07936
1620.60243,0.08118
1619.11264,0.09881
1617.62285,0.09506
1616.13306,0.08892
1614.64327,0.09914
1613.15348,0.09519
1611.66370,0.09340
1610.17391,0.10449
1608.68412,0.10142
1607.19433,0.09542
1605.70454,0.09267
1604.21475,0.09140
1602.72496,0.09017
1601.23518,0.09819
1599.74539,0.09231
1598.25560,0.10038
1596.76581,0.09910
1595.27602,0.09759
1593.78623,0.08860
1592.29645,0.08659
1590.80666,0.08113
1589.31687,0.06472
1587.82708,0.08767
1586.33729,0.09941
1584.84750,0.09967
1583.35771,0.09192
1581.86793,0.08633
1580.37814,0.08666
1578.88835,0.09183
1577.39856,0.07454
1575.90877,0.06932
1574.41898,0.06841
1572.92920,0.06912
1571.43941,0.06611
1569.94962,0.06300
1568.45983,0.05990
1566.97004,0.05215
1565.48025,0.04870
1563.99047,0.05866
1562.50068,0.04697
1561.01089,0.04654
1559.52110,0.03543
1558.03131,0.05485
1556.54152,0.04726
1555.05173,0.04345
1553.56195,0.04046
1552.07216,0.02626
1550.58237,0.01342
1549.09258,0.01050
1547.60279,0.02126
1546.11300,0.03766
1544.62322,0.03000
1543.13343,0.02933
1541.64364,0.01155
1540.15385,0.00811
1538.66406,0.00469
1537.17427,0.02676
1535.68448,0.01996
1534.19470,0.02415
1532.70491,0.03372
1531.21512,0.03207
1529.72533,0.03981
1528.23554,0.04357
1526.74575,0.04975
1525.25597,0.04311
1523.76618,0.05229
1522.27639,0.03982
1520.78660,0.04155
1519.29681,0.03849
1517.80702,0.05391
1516.31724,0.06054
1514.82745,0.04952
1513.33766,0.04468
1511.84787,0.03986
1510.35808,0.05300
1508.86829,0.05841
1507.37850,0.06678
1505.88872,0.04627
1504.39893,0.06379
1502.90914,0.05912
1501.41935,0.06384
1499.92956,0.08919
1498.43977,0.07068
1496.94999,0.08858
1495.46020,0.08216
1493.97041,0.08994
1492.48062,0.11247
1490.99083,0.09996
1489.50104,0.12281
1488.01125,0.12426
1486.52147,0.12575
1485.03168,0.13876
1483.54189,0.17615
1482.05210,0.17476
1480.56231,0.16590
1479.07252,0.18115
1477.58274,0.20258
1476.09295,0.21467
1474.60316,0.20483
1473.11337,0.22848
1471.62358,0.22859
1470.13379,0.22713
1468.64401,0.24469
1467.15422,0.25505
1465.66443,0.26851
1464.17464,0.28199
1462.68485,0.27556
1461.19506,0.33151
1459.70527,0.37116
1458.21549,0.39584
1456.72570,0.46043
1455.23591,0.52611
1453.74612,0.60573
1452.25633,0.65566
1450.76654,0.68368
1449.27676,0.68389
1447.78697,0.66111
1446.29718,0.62444
1444.80739,0.61468
1443.31760,0.60495
1441.82781,0.56380
1440.33802,0.53284
1438.84824,0.52787
1437.35845,0.47475
1435.86866,0.47170
1434.37887,0.45769
1432.88908,0.49296
1431.39929,0.53547
1429.90951,0.60156
1428.41972,0.68640
1426.92993,0.75923
1425.44014,0.78338
1423.95035,0.81263
1422.46056,0.84191
1420.97078,0.87308
1419.48099,0.89304
1417.99120,0.90419
1416.50141,0.88914
1415.01162,0.85565
1413.52183,0.81147
1412.03204,0.76759
1410.54226,0.73230
1409.05247,0.66384
1407.56268,0.61388
1406.07289,0.54762
1404.58310,0.53182
1403.09331,0.51605
1401.60353,0.44959
1400.11374,0.38850
1398.62395,0.34725
1397.13416,0.30682
1395.64437,0.25812
1394.15458,0.23566
1392.66479,0.20307
1391.17501,0.15203
1389.68522,0.12323
1388.19543,0.09499
1386.70564,0.08844
1385.21585,0.08193
1383.72606,0.05938
1382.23628,0.05050
1380.74649,0.02211
1379.25670,0.03656
1377.76691,0.01946
1376.27712,0.02138
1374.78733,0.02199
1373.29755,0.02182
1371.80776,0.01445
1370.31797,0.00469
1368.82818,0.01334
1367.33839,0.02201
1365.84860,0.03981
1364.35881,0.03917
1362.86903,0.05166
1361.37924,0.06551
1359.88945,0.08234
1358.39966,0.09677
1356.90987,0.12622
1355.42008,0.17282
1353.93030,0.23176
1352.44051,0.25927
1350.95072,0.28681
1349.46093,0.36000
1347.97114,0.40591
1346.48135,0.47728
1344.99156,0.53047
1343.50178,0.56683
1342.01199,0.63773
1340.52220,0.72979
1339.03241,0.78977
1337.54262,0.83773
1336.05283,0.86042
1334.56305,0.88314
1333.07326,0.86400
1331.58347,0.87004
1330.09368,0.87637
1328.60389,0.86239
1327.11410,0.84361
1325.62432,0.83235
1324.13453,0.78097
1322.64474,0.72694
1321.15495,0.69408
1319.66516,0.67569
1318.17537,0.65732
1316.68558,0.58171
1315.19580,0.56045
1313.70601,0.52851
1312.21622,0.52095
1310.72643,0.48504
1309.23664,0.45103
1307.74685,0.37556
1306.25707,0.36381
1304.76728,0.34152
1303.27749,0.31924
1301.78770,0.28910
1300.29791,0.25657
1298.80812,0.20774
1297.31834,0.17607
1295.82855,0.15806
1294.33876,0.13446
1292.84897,0.11918
1291.35918,0.09938
1289.86939,0.09538
1288.37960,0.09142
1286.88982,0.07329
1285.40003,0.07392
1283.91024,0.06360
1282.42045,0.06535
1280.93066,0.05561
1279.44087,0.04108
1277.95109,0.04237
1276.46130,0.02120
1274.97151,0.02989
1273.48172,0.03860
1271.99193,0.02125
1270.50214,0.02105
1269.01235,0.02650
1267.52257,0.03437
1266.03278,0.03933
1264.54299,0.03655
1263.05320,0.03031
1261.56341,0.02945
1260.07362,0.02862
1258.58384,0.01951
1257.09405,0.01819
1255.60426,0.02625
1254.11447,0.02257
1252.62468,0.02266
1251.13489,0.02572
1249.64511,0.02077
1248.15532,0.02548
1246.66553,0.02004
1245.17574,0.01463
1243.68595,0.00469
1242.19616,0.02202
1240.70637,0.03644
1239.21659,0.02786
1237.72680,0.04339
1236.23701,0.03031
1234.74722,0.03117
1233.25743,0.03380
1231.76764,0.03645
1230.27786,0.04113
1228.78807,0.03004
1227.29828,0.02192
1225.80849,0.03390
1224.31870,0.00469
1222.82891,0.02315
1221.33912,0.01942
1219.84934,0.02054
1218.35955,0.02168
1216.86976,0.03113
1215.37997,0.04383
1213.89018,0.06431
1212.40039,0.07062
1210.91061,0.06707
1209.42082,0.07531
1207.93103,0.06524
1206.44124,0.05519
1204.95145,0.05601
1203.46166,0.05284
1201.97188,0.04140
1200.48209,0.03185
1198.99230,0.05311
1197.50251,0.02809
1196.01272,0.02530
1194.52293,0.02602
1193.03314,0.02677
1191.54336,0.01630
1190.05357,0.02886
1188.56378,0.01897
1187.07399,0.03079
1185.58420,0.02790
1184.09441,0.01434
1182.60463,0.01311
1181.11484,0.01191
1179.62505,0.01233
1178.13526,0.01599
1176.64547,0.00469
1175.15568,0.01616
1173.66589,0.01722
1172.17611,0.01429
1170.68632,0.01246
1169.19653,0.01065
1167.70674,0.01635
1166.21695,0.00469
1164.72716,0.03409
1163.23738,0.04318
1161.74759,0.06112
1160.25780,0.05955
1158.76801,0.05399
1157.27822,0.04845
1155.78843,0.07452
1154.29865,0.07171
1152.80886,0.09729
1151.31907,0.09104
1149.82928,0.10168
1148.33949,0.09763
1146.84970,0.08905
1145.35991,0.08050
1143.87013,0.13004
1142.38034,0.17987
1140.89055,0.15827
1139.40076,0.16774
1137.91097,0.17751
1136.42118,0.18248
1134.93140,0.18453
1133.44161,0.18660
1131.95182,0.22563
1130.46203,0.22722
1128.97224,0.19457
1127.48245,0.20343
1125.99266,0.22704
1124.50288,0.26030
1123.01309,0.25719
1121.52330,0.25410
1120.03351,0.22963
1118.54372,0.22258
1117.05393,0.21635
1115.56415,0.23290
1114.07436,0.19381
1112.58457,0.19742
1111.09478,0.20106
1109.60499,0.23376
1108.11520,0.22661
1106.62542,0.24009
1105.13563,0.22977
1103.64584,0.22724
1102.15605,0.23383
1100.66626,0.22185
1099.17647,0.20989
1097.68668,0.20184
1096.19690,0.18070
1094.70711,0.18393
1093.21732,0.19388
1091.72753,0.17950
1090.23774,0.17157
1088.74795,0.16366
1087.25817,0.16219
1085.76838,0.14042
1084.27859,0.13365
1082.78880,0.16518
1081.29901,0.14160
1079.80922,0.13249
1078.31943,0.14375
1076.82965,0.15504
1075.33986,0.16929
1073.85007,0.16510
1072.36028,0.18315
1070.87049,0.19586
1069.38070,0.21824
1067.89092,0.23368
1066.40113,0.24915
1064.91134,0.24992
1063.42155,0.32645
1061.93176,0.41291
1060.44197,0.45550
1058.95219,0.54254
1057.46240,0.58973
1055.97261,0.63694
1054.48282,0.72432
1052.99303,0.77238
1051.50324,0.78862
1050.01345,0.81479
1048.52367,0.78398
1047.03388,0.79160
1045.54409,0.79924
1044.05430,0.79928
1042.56451,0.71263
1041.07472,0.62520
1039.58494,0.58865
1038.09515,0.54195
1036.60536,0.52498
1035.11557,0.50803
1033.62578,0.46783
1032.13599,0.40892
1030.64620,0.33397
1029.15642,0.27832
1027.66663,0.26243
1026.17684,0.24656
1024.68705,0.20731
1023.19726,0.19965
1021.70747,0.16847
1020.21769,0.13437
1018.72790,0.11287
1017.23811,0.10665
1015.74832,0.10045
1014.25853,0.09268
1012.76874,0.07743
1011.27896,0.08067
1009.78917,0.09009
1008.29938,0.07251
1006.80959,0.06191
1005.31980,0.05133
1003.83001,0.03195
1002.34022,0.03346
1000.85044,0.01118
999.36065,0.01488
997.87086,0.02985
996.38107,0.04484
994.89128,0.06467
993.40149,0.06954
991.91171,0.08059
990.42192,0.09166
988.93213,0.09473
987.44234,0.09099
985.95255,0.08728
984.46276,0.08266
982.97297,0.07646
981.48319,0.06814
979.99340,0.07403
978.50361,0.06215
977.01382,0.05029
975.52403,0.04206
974.03424,0.03600
972.54446,0.01525
971.05467,0.00469
969.56488,0.01369
968.07509,0.01228
966.58530,0.01090
965.09551,0.01355
963.60573,0.01168
962.11594,0.01277
960.62615,0.02058
959.13636,0.01195
957.64657,0.00335
956.15678,0.02005
954.66699,0.04508
953.17721,0.06022
951.68742,0.05130
950.19763,0.05980
948.70784,0.06833
947.21805,0.08143
945.72826,0.08090
944.23848,0.10020
942.74869,0.11203
941.25890,0.12710
939.76911,0.13965
938.27932,0.15223
936.78953,0.19439
935.29974,0.20421
933.80996,0.19477
932.32017,0.23059
930.83038,0.23660
929.34059,0.24262
927.85080,0.24185
926.36101,0.24672
924.87123,0.27865
923.38144,0.34084
921.89165,0.37535
920.40186,0.40989
918.91207,0.47081
917.42228,0.60482
915.93250,0.73109
914.44271,0.93526
912.95292,1.03856
911.46313,1.14189
909.97334,1.33864
908.48355,1.53167
906.99376,1.72632
905.50398,1.91110
904.01419,1.95554
902.52440,2.00000
901.03461,1.96835
899.54482,1.94743
898.05503,1.81681
896.56525,1.64232
895.07546,1.50332
893.58567,1.36434
892.09588,1.11954
890.60609,0.87530
889.11630,0.65999
887.62651,0.50439
886.13673,0.43885
884.64694,0.37335
883.15715,0.24511
881.66736,0.18674
880.17757,0.14659
878.68778,0.12066
877.19800,0.09474
875.70821,0.06885
874.21842,0.04031
872.72863,0.03320
871.23884,0.03361
869.74905,0.02561
868.25927,0.01764
866.76948,0.03043
865.27969,0.03040
863.78990,0.02397
862.30011,0.02586
860.81032,0.04276
859.32053,0.05969
857.83075,0.06781
856.34096,0.07675
854.85117,0.06886
853.36138,0.06715
851.87159,0.07643
850.38180,0.08574
848.89202,0.10819
847.40223,0.11059
845.91244,0.14379
844.42265,0.15466
842.93286,0.16556
841.44307,0.16485
839.95329,0.19065
838.46350,0.18837
836.97371,0.20539
835.48392,0.20250
833.99413,0.19963
832.50434,0.17979
831.01455,0.17683
829.52477,0.18701
828.03498,0.16189
826.54519,0.15566
825.05540,0.14945
823.56561,0.13350
822.07582,0.13738
820.58604,0.10382
819.09625,0.10507
817.60646,0.10634
816.11667,0.09560
814.62688,0.07899
813.13709,0.09880
811.64730,0.09883
810.15752,0.09702
808.66773,0.09522
807.17794,0.08917
805.68815,0.10669
804.19836,0.10096
802.70857,0.10060
801.21879,0.10027
799.72900,0.09969
798.23921,0.08682
796.74942,0.10155
795.25963,0.09716
793.76984,0.09280
792.28006,0.11348
790.79027,0.11385
789.30048,0.13726
787.81069,0.14811
786.32090,0.16354
784.83111,0.17899
783.34132,0.22738
781.85154,0.22388
780.36175,0.25118
778.87196,0.25522
777.38217,0.25928
775.89238,0.29950
774.40259,0.30950
772.91281,0.30828
771.42302,0.30240
769.93323,0.29655
768.44344,0.26089
766.95365,0.23301
765.46386,0.19899
763.97407,0.17999
762.48429,0.17132
760.99450,0.16266
759.50471,0.12554
758.01492,0.10208
756.52513,0.09390
755.03534,0.07826
753.54556,0.06263
752.05577,0.07647
750.56598,0.06652
749.07619,0.06248
747.58640,0.05431
746.09661,0.04617
744.60683,0.04112
743.11704,0.02246
741.62725,0.01800
740.13746,0.01838
738.64767,0.01879
737.15788,0.02618
735.66809,0.00469
734.17831,0.01364
732.68852,0.01351
731.19873,0.01340
729.70894,0.00770
728.21915,0.02263
726.72936,0.01055
725.23958,0.02047
723.74979,0.01730
722.26000,0.01416
720.77021,0.02897
719.28042,0.02159
717.79063,0.00648
716.30084,0.00557
714.81106,0.00469
713.32127,0.00717
711.83148,0.02413
710.34169,0.03495
708.85190,0.03616
707.36211,0.03740
705.87233,0.03813
704.38254,0.03032
702.89275,0.04099
701.40296,0.04340
699.91317,0.04583
698.42338,0.08655
696.93360,0.07939
695.44381,0.09527
693.95402,0.10837
692.46423,0.12149
690.97444,0.11978
689.48465,0.14057
687.99486,0.14801
686.50508,0.16725
685.01529,0.18651
683.52550,0.21623
682.03571,0.23688
680.54592,0.25514
679.05613,0.25791
677.56635,0.26070
676.07656,0.24317
674.58677,0.24628
673.09698,0.24352
671.60719,0.23517
670.11740,0.22684
668.62761,0.17170
667.13783,0.15967
665.64804,0.14592
664.15825,0.13220
662.66846,0.10419
661.17867,0.10243
659.68888,0.05894
658.19910,0.05803
656.70931,0.05714
655.21952,0.02737
653.72973,0.03831
652.23994,0.03802
650.75015,0.03964
649.26037,0.04128
647.77058,0.03813
646.28079,0.03366
644.79100,0.04501
643.30121,0.03738
641.81142,0.02977
640.32163,0.04521
638.83185,0.03470
637.34206,0.00469
635.85227,0.01655
634.36248,0.02843
632.87269,0.01331
631.38290,0.01801
629.89312,0.00669
628.40333,0.00461
626.91354,0.00257
625.42375,0.00523
623.93396,0.00229
622.44417,0.01570
620.95438,0.02914
619.46460,0.03698
617.97481,0.05314
616.48502,0.05675
614.99523,0.07229
613.50544,0.08786
612.01565,0.11428
610.52587,0.13752
609.03608,0.17203
607.54629,0.19451
606.05650,0.21702
604.56671,0.26417
603.07692,0.28164
601.58714,0.28817
600.09735,0.29472
598.60756,0.33795
597.11777,0.38201
595.62798,0.37980
594.13819,0.37761
592.64840,0.37545
591.15862,0.35404
589.66883,0.31687
588.17904,0.27357
586.68925,0.25879
585.19946,0.24403
583.70967,0.15638
582.21989,0.10942
580.73010,0.09340
579.24031,0.07740
577.75052,0.05354
576.26073,0.05779
574.77094,0.04013
573.28115,0.04002
571.79137,0.03993
570.30158,0.03866
568.81179,0.05160
567.32200,0.05346
565.83221,0.05534
564.34242,0.09405
562.85264,0.11832
561.36285,0.12978
559.87306,0.12306
558.38327,0.11636
556.89348,0.12869
555.40369,0.12981
553.91391,0.13938
552.42412,0.14897
550.93433,0.14507
549.44454,0.13986
547.95475,0.16009
546.46496,0.15760
544.97517,0.15514
543.48539,0.19070
541.99560,0.23806
540.50581,0.25052
539.01602,0.26300
537.52623,0.29304
536.03644,0.31855
534.54666,0.39039
533.05687,0.41381
531.56708,0.43725
530.07729,0.46205
528.58750,0.52381
527.09771,0.53997
525.60792,0.55615
524.11814,0.63377
522.62835,0.67797
521.13856,0.74573
519.64877,0.77044
518.15898,0.79517
516.66919,0.85016
515.17941,0.85112
513.68962,0.86696
512.19983,0.88282
510.71004,0.81909
509.22025,0.73210
507.73046,0.64942
506.24068,0.59820
504.75089,0.54701
503.26110,0.47109
501.77131,0.38743
500.28152,0.33511
498.79173,0.28281
497.30194,0.23134
495.81216,0.16491
494.32237,0.13449
492.83258,0.10410
491.34279,0.09956
489.85300,0.07202
488.36321,0.09295
486.87343,0.09009
485.38364,0.08724
483.89385,0.06971
482.40406,0.07709
480.91427,0.08783
479.42448,0.09860
477.93469,0.11970
476.44491,0.13600
474.95512,0.14390
473.46533,0.15182
471.97554,0.16766
470.48575,0.15463
468.99596,0.13519
467.50618,0.13933
466.01639,0.14349
464.52660,0.12493
463.03681,0.09515
461.54702,0.08186
460.05723,0.06859
458.56745,0.04584
457.07766,0.05095
455.58787,0.04029
454.09808,0.02966
452.60829,0.01290
451.11850,0.01623
449.62871,0.01450
448.13893,0.01279
446.64914,0.00469
445.15935,0.03419
443.66956,0.02437
442.17977,0.03585
440.68998,0.04736
439.20020,0.03868
437.71041,0.03512
436.22062,0.03693
434.73083,0.03876
433.24104,0.05909
431.75125,0.03688
430.26146,0.02755
428.77168,0.01824
427.28189,0.04000
425.79210,0.02458
424.30231,0.04211
422.81252,0.05966
421.32273,0.05234
419.83295,0.05013
418.34316,0.04327
416.85337,0.03642
415.36358,0.00726
413.87379,0.00679
412.38400,0.00648
410.89422,0.00620
409.40443,0.01999
407.91464,0.01453
406.42485,0.05834
404.93506,0.04851
403.44527,0.03871
401.95548,0.03014
400.46570,0.01196
398.97591,0.02057
397.48612,0.02919
395.99633,0.02125
394.50654,0.04170
393.01675,0.02846
391.52697,0.01524
390.03718,0.02065
388.54739,0.01243
387.05760,0.01815
385.56781,0.02390
384.07802,0.01522
382.58824,0.00469
381.09845,0.01144
379.60866,0.01822
378.11887,0.02087
376.62908,0.02810
375.13929,0.01662
373.64950,0.00516
372.15972,0.02557
370.66993,0.02005
369.18014,0.02404
367.69035,0.02804
366.20056,0.03917
364.71077,0.04925
363.22099,0.02897
361.73120,0.00872
360.24141,0.00469
358.75162,0.00412
357.26183,0.01347
355.77204,0.02285
354.28225,0.07989
352.79247,0.06523
351.30268,0.05876
349.81289,0.05231
348.32310,0.06689
346.83331,0.08444
345.34352,0.06469
343.85374,0.04495
342.36395,0.01307
340.87416,0.04294
339.38437,0.03255
337.89458,0.02220
336.40479,0.01815
334.91501,0.04250
333.42522,0.02431
331.93543,0.00616
330.44564,0.02041
328.95585,0.04512
327.46606,0.05580
325.97627,0.06651
324.48649,0.00753
322.99670,0.00990
321.50691,0.01444
320.01712,0.01900
318.52733,0.03751
317.03754,0.06941
315.54776,0.09345
314.05797,0.11751
312.56818,0.10882
311.07839,0.08703
309.58860,0.07008
308.09881,0.05316
306.60902,0.02208
305.11924,0.03144
303.62945,0.01806
302.13966,0.00472
300.64987,0.01459
299.16008,0.00469
