1778.52000,0.01144
1777.03021,0.01537
1775.54042,0.02283
1774.05063,0.01528
1772.56085,0.01978
1771.07106,0.01704
1769.58127,0.03186
1768.09148,0.02516
1766.60169,0.02199
1765.11190,0.01584
1763.62212,0.00395
1762.13233,0.00812
1760.64254,0.01156
1759.15275,0.01553
1757.66296,0.01753
1756.17317,0.00475
1754.68339,0.00078
1753.19360,0.02039
1751.70381,0.02097
1750.21402,0.01607
1748.72423,0.00317
1747.23444,0.00909
1745.74465,0.01002
1744.25487,0.01098
1742.76508,0.00770
1741.27529,0.00395
1739.78550,0.01167
1738.29571,0.00963
1736.80592,0.03570
1735.31614,0.02895
1733.82635,0.02649
1732.33656,0.00000
1730.84677,0.00411
1729.35698,0.00322
1727.86719,0.00738
1726.37740,0.00504
1724.88762,0.01576
1723.39783,0.01398
1721.90804,0.00395
1720.41825,0.01408
1718.92846,0.01044
1717.43867,0.01811
1715.94889,0.01328
1714.45910,0.02426
1712.96931,0.01621
1711.47952,0.01220
1709.98973,0.02701
1708.49994,0.01428
1707.01016,0.01649
1705.52037,0.01871
1704.03058,0.01909
1702.54079,0.00395
1701.05100,0.01310
1699.56121,0.02002
1698.07142,0.01594
1696.58164,0.01514
1695.09185,0.03216
1693.60206,0.02088
1692.11227,0.02366
1690.62248,0.02171
1689.13269,0.03081
1687.64291,0.03216
1686.15312,0.03053
1684.66333,0.02191
1683.17354,0.02509
1681.68375,0.03481
1680.19396,0.03629
1678.70417,0.03678
1677.21439,0.04282
1675.72460,0.03961
1674.23481,0.04168
1672.74502,0.05055
1671.25523,0.03538
1669.76544,0.06134
1668.27566,0.06978
1666.78587,0.06671
1665.29608,0.06367
1663.80629,0.06441
1662.31650,0.07420
1660.82671,0.07925
1659.33693,0.07481
1657.84714,0.07891
1656.35735,0.08078
1654.86756,0.06788
1653.37777,0.06053
1651.88798,0.07926
1650.39819,0.07722
1648.90841,0.06818
1647.41862,0.08523
1645.92883,0.08314
1644.43904,0.08107
1642.94925,0.07865
1641.45946,0.08903
1639.96968,0.07337
1638.47989,0.08431
1636.99010,0.08950
1635.50031,0.07292
1634.01052,0.08518
1632.52073,0.08920
1631.03094,0.10101
1629.54116,0.10632
1628.05137,0.10390
1626.56158,0.07969
1625.07179,0.08333
1623.58200,0.05992
1622.09221,0.05809
1620.60243,0.09138
1619.11264,0.09286
1617.62285,0.08659
1616.13306,0.07208
1614.64327,0.08240
1613.15348,0.08699
1611.66370,0.10288
1610.17391,0.09573
1608.68412,0.08109
1607.19433,0.09630
1605.70454,0.09951
1604.21475,0.10261
1602.72496,0.10574
1601.23518,0.07368
1599.74539,0.08174
1598.25560,0.08482
1596.76581,0.09243
1595.27602,0.09355
1593.78623,0.10196
1592.29645,0.09085
1590.80666,0.09105
1589.31687,0.07322
1587.82708,0.06669
1586.33729,0.08199
1584.84750,0.09582
1583.35771,0.10515
1581.86793,0.10599
1580.37814,0.07653
1578.88835,0.07692
1577.39856,0.06530
1575.90877,0.05772
1574.41898,0.06570
1572.92920,0.06769
1571.43941,0.06294
1569.94962,0.05833
1568.45983,0.05376
1566.97004,0.03153
1565.48025,0.03365
1563.99047,0.03102
1562.50068,0.01639
1561.01089,0.03462
1559.52110,0.03984
1558.03131,0.03606
1556.54152,0.02002
1555.05173,0.02732
1553.56195,0.02837
1552.07216,0.03522
1550.58237,0.03231
1549.09258,0.03144
1547.60279,0.01781
1546.11300,0.00395
1544.62322,0.01201
1543.13343,0.02185
1541.64364,0.01542
1540.15385,0.01917
1538.66406,0.02294
1537.17427,0.01959
1535.68448,0.02504
1534.19470,0.01398
1532.70491,0.00770
1531.21512,0.00395
1529.72533,0.02050
1528.23554,0.02831
1526.74575,0.01910
1525.25597,0.03773
1523.76618,0.03984
1522.27639,0.06003
1520.78660,0.03939
1519.29681,0.05010
1517.80702,0.04178
1516.31724,0.04327
1514.82745,0.05005
1513.33766,0.04594
1511.84787,0.04186
1510.35808,0.05448
1508.86829,0.05533
1507.37850,0.04995
1505.88872,0.05361
1504.39893,0.05805
1502.90914,0.05750
1501.41935,0.04821
1499.92956,0.06350
1498.43977,0.06403
1496.94999,0.07611
1495.46020,0.08495
1493.97041,0.08180
1492.48062,0.09997
1490.99083,0.12568
1489.50104,0.12360
1488.01125,0.12204
1486.52147,0.12051
1485.03168,0.13279
1483.54189,0.14835
1482.05210,0.15641
1480.56231,0.19157
1479.07252,0.20595
1477.58274,0.22261
1476.09295,0.21173
1474.60316,0.21541
1473.11337,0.23966
1471.62358,0.25968
1470.13379,0.24438
1468.64401,0.25217
1467.15422,0.25196
1465.66443,0.26230
1464.17464,0.27267
1462.68485,0.30461
1461.19506,0.35086
1459.70527,0.40441
1458.21549,0.46099
1456.72570,0.48676
1455.23591,0.54139
1453.74612,0.61934
1452.25633,0.65471
1450.76654,0.68635
1449.27676,0.67616
1447.78697,0.68780
1446.29718,0.68618
1444.80739,0.67218
1443.31760,0.65820
1441.82781,0.63460
1440.33802,0.55664
1438.84824,0.50426
1437.35845,0.51883
1435.86866,0.50986
1434.37887,0.49917
1432.88908,0.52283
1431.39929,0.55454
1429.90951,0.59304
1428.41972,0.66614
1426.92993,0.71798
1425.44014,0.78863
1423.95035,0.81996
1422.46056,0.85131
1420.97078,0.89722
1419.48099,0.93514
1417.99120,0.97283
1416.50141,0.95090
1415.01162,0.92073
1413.52183,0.88807
1412.03204,0.84691
1410.54226,0.77044
1409.05247,0.65841
1407.56268,0.61708
1406.07289,0.55722
1404.58310,0.53950
1403.09331,0.52180
1401.60353,0.46453
1400.11374,0.38196
1398.62395,0.34855
1397.13416,0.33044
1395.64437,0.27327
1394.15458,0.22213
1392.66479,0.19784
1391.17501,0.16605
1389.68522,0.13102
1388.19543,0.11557
1386.70564,0.10291
1385.21585,0.09026
1383.72606,0.06286
1382.23628,0.02595
1380.74649,0.03118
1379.25670,0.01863
1377.76691,0.01413
1376.27712,0.01918
1374.78733,0.00395
1373.29755,0.00433
1371.80776,0.00741
1370.31797,0.00526
1368.82818,0.01594
1367.33839,0.02665
1365.84860,0.02886
1364.35881,0.01481
1362.86903,0.03837
1361.37924,0.05243
1359.88945,0.07955
1358.39966,0.09742
1356.90987,0.11357
1355.42008,0.17635
1353.93030,0.23264
1352.44051,0.24848
1350.95072,0.26434
1349.46093,0.35880
1347.97114,0.45078
1346.48135,0.50218
1344.99156,0.55135
1343.50178,0.64014
1342.01199,0.68586
1340.52220,0.71229
1339.03241,0.78587
1337.54262,0.85296
1336.05283,0.87934
1334.56305,0.90575
1333.07326,0.93331
1331.58347,0.95840
1330.09368,0.94240
1328.60389,0.88557
1327.11410,0.85810
1325.62432,0.84669
1324.13453,0.86036
1322.64474,0.82043
1321.15495,0.74042
1319.66516,0.71883
1318.17537,0.69726
1316.68558,0.64189
1315.19580,0.61336
1313.70601,0.56730
1312.21622,0.53005
1310.72643,0.49231
1309.23664,0.42979
1307.74685,0.42645
1306.25707,0.36523
1304.76728,0.34113
1303.27749,0.31705
1301.78770,0.28448
1300.29791,0.25769
1298.80812,0.24547
1297.31834,0.19618
1295.82855,0.14942
1294.33876,0.12349
1292.84897,0.11036
1291.35918,0.09751
1289.86939,0.09896
1288.37960,0.10045
1286.88982,0.07539
1285.40003,0.08143
1283.91024,0.10529
1282.42045,0.08582
1280.93066,0.06386
1279.44087,0.06048
1277.95109,0.04033
1276.46130,0.04502
1274.97151,0.04484
1273.48172,0.04469
1271.99193,0.02714
1270.50214,0.05774
1269.01235,0.03348
1267.52257,0.02427
1266.03278,0.02537
1264.54299,0.00670
1263.05320,0.01210
1261.56341,0.00801
1260.07362,0.00395
1258.58384,0.02709
1257.09405,0.01968
1255.60426,0.03360
1254.11447,0.02273
1252.62468,0.01865
1251.13489,0.03314
1249.64511,0.02560
1248.15532,0.02836
1246.66553,0.02326
1245.17574,0.01817
1243.68595,0.03153
1242.19616,0.03339
1240.70637,0.03026
1239.21659,0.01838
1237.72680,0.02558
1236.23701,0.03781
1234.74722,0.03553
1233.25743,0.03052
1231.76764,0.02553
1230.27786,0.02032
1228.78807,0.00385
1227.29828,0.00395
1225.80849,0.03530
1224.31870,0.03485
1222.82891,0.04319
1221.33912,0.04454
1219.84934,0.05293
1218.35955,0.06135
1216.86976,0.05726
1215.37997,0.04543
1213.89018,0.06420
1212.40039,0.06068
1210.91061,0.06697
1209.42082,0.04696
1207.93103,0.04929
1206.44124,0.05163
1204.95145,0.06178
1203.46166,0.04488
1201.97188,0.04655
1200.48209,0.06002
1198.99230,0.04294
1197.50251,0.03917
1196.01272,0.06500
1194.52293,0.04762
1193.03314,0.03027
1191.54336,0.03612
1190.05357,0.04475
1188.56378,0.01857
1187.07399,0.00395
1185.58420,0.01240
1184.09441,0.02238
1182.60463,0.02825
1181.11484,0.03414
1179.62505,0.02514
1178.13526,0.02344
1176.64547,0.01074
1175.15568,0.01786
1173.66589,0.00395
1172.17611,0.01016
1170.68632,0.01489
1169.19653,0.01965
1167.70674,0.02367
1166.21695,0.04427
1164.72716,0.02980
1163.23738,0.00909
1161.74759,0.02074
1160.25780,0.04394
1158.76801,0.05663
1157.27822,0.06935
1155.78843,0.08511
1154.29865,0.08134
1152.80886,0.07233
1151.31907,0.09116
1149.82928,0.10677
1148.33949,0.13843
1146.84970,0.12864
1145.35991,0.11888
1143.87013,0.11729
1142.38034,0.11271
1140.89055,0.14500
1139.40076,0.16253
1137.91097,0.16755
1136.42118,0.17385
1134.93140,0.19458
1133.44161,0.21534
1131.95182,0.20342
1130.46203,0.23738
1128.97224,0.24280
1127.48245,0.23020
1125.99266,0.23717
1124.50288,0.22712
1123.01309,0.22136
1121.52330,0.21563
1120.03351,0.23523
1118.54372,0.22854
1117.05393,0.24393
1115.56415,0.25132
1114.07436,0.21212
1112.58457,0.20854
1111.09478,0.20498
1109.60499,0.22125
1108.11520,0.21974
1106.62542,0.23680
1105.13563,0.21931
1103.64584,0.19682
1102.15605,0.21747
1100.66626,0.20719
1099.17647,0.19694
1097.68668,0.19335
1096.19690,0.20006
1094.70711,0.18298
1093.21732,0.16969
1091.72753,0.16771
1090.23774,0.17853
1088.74795,0.18937
1087.25817,0.17242
1085.76838,0.17830
1084.27859,0.18821
1082.78880,0.18387
1081.29901,0.18731
1079.80922,0.17951
1078.31943,0.18163
1076.82965,0.18377
1075.33986,0.18230
1073.85007,0.19439
1072.36028,0.18095
1070.87049,0.19133
1069.38070,0.23432
1067.89092,0.24889
1066.40113,0.26349
1064.91134,0.30856
1063.42155,0.37571
1061.93176,0.45541
1060.44197,0.53765
1058.95219,0.61089
1057.46240,0.64881
1055.97261,0.68676
1054.48282,0.76183
1052.99303,0.81812
1051.50324,0.87820
1050.01345,0.85535
1048.52367,0.87963
1047.03388,0.88452
1045.54409,0.88944
1044.05430,0.82558
1042.56451,0.79082
1041.07472,0.74155
1039.58494,0.68202
1038.09515,0.56137
1036.60536,0.54200
1035.11557,0.52265
1033.62578,0.46623
1032.13599,0.39104
1030.64620,0.34044
1029.15642,0.29136
1027.66663,0.27188
1026.17684,0.25243
1024.68705,0.20042
1023.19726,0.19756
1021.70747,0.14409
1020.21769,0.13401
1018.72790,0.11994
1017.23811,0.11442
1015.74832,0.10892
1014.25853,0.10771
1012.76874,0.09424
1011.27896,0.12115
1009.78917,0.10222
1008.29938,0.07403
1006.80959,0.05753
1005.31980,0.04105
1003.83001,0.01796
1002.34022,0.02446
1000.85044,0.01821
999.36065,0.02451
997.87086,0.03259
996.38107,0.04069
994.89128,0.04882
993.40149,0.06124
991.91171,0.08345
990.42192,0.06734
988.93213,0.08560
987.44234,0.08896
985.95255,0.09235
984.46276,0.10291
982.97297,0.09820
981.48319,0.06946
979.99340,0.04851
978.50361,0.05114
977.01382,0.05380
975.52403,0.03494
974.03424,0.03764
972.54446,0.01958
971.05467,0.00379
969.56488,0.01732
968.07509,0.01698
966.58530,0.01665
965.09551,0.00395
963.60573,0.01567
962.11594,0.01814
960.62615,0.02741
959.13636,0.02905
957.64657,0.03072
956.15678,0.03079
954.66699,0.00306
953.17721,0.04394
951.68742,0.02794
950.19763,0.04242
948.70784,0.05693
947.21805,0.06532
945.72826,0.08502
944.23848,0.09496
942.74869,0.10017
941.25890,0.09738
939.76911,0.11943
938.27932,0.14150
936.78953,0.16485
935.29974,0.17995
933.80996,0.18455
932.32017,0.22677
930.83038,0.23681
929.34059,0.24688
927.85080,0.26235
926.36101,0.29490
924.87123,0.32571
923.38144,0.34377
921.89165,0.37463
920.40186,0.40552
918.91207,0.50811
917.42228,0.64356
915.93250,0.80860
914.44271,0.98871
912.95292,1.08914
911.46313,1.18960
909.97334,1.43795
908.48355,1.59559
906.99376,1.74976
905.50398,1.86610
904.01419,1.89864
902.52440,1.93120
901.03461,2.00000
899.54482,1.97609
898.05503,1.85698
896.56525,1.72084
895.07546,1.57070
893.58567,1.42057
892.09588,1.15870
890.60609,0.87956
889.11630,0.70470
887.62651,0.52585
886.13673,0.44014
884.64694,0.35445
883.15715,0.25613
881.66736,0.20370
880.17757,0.12798
878.68778,0.10931
877.19800,0.09066
875.70821,0.06363
874.21842,0.04416
872.72863,0.02671
871.23884,0.02056
869.74905,0.02647
868.25927,0.03240
866.76948,0.03861
865.27969,0.00600
863.78990,0.05436
862.30011,0.06189
860.81032,0.06682
859.32053,0.07177
857.83075,0.08314
856.34096,0.09553
854.85117,0.09141
853.36138,0.11990
851.87159,0.11745
850.38180,0.11503
848.89202,0.12755
847.40223,0.16340
845.91244,0.16369
844.42265,0.16700
842.93286,0.17035
841.44307,0.17597
839.95329,0.20041
838.46350,0.21586
836.97371,0.22632
835.48392,0.23317
833.99413,0.24004
832.50434,0.22827
831.01455,0.21326
829.52477,0.21457
828.03498,0.17956
826.54519,0.16362
825.05540,0.14771
823.56561,0.14686
822.07582,0.12849
820.58604,0.13145
819.09625,0.13268
817.60646,0.13393
816.11667,0.11566
814.62688,0.11747
813.13709,0.10451
811.64730,0.12115
810.15752,0.12766
808.66773,0.13420
807.17794,0.11307
805.68815,0.11026
804.19836,0.11023
802.70857,0.12213
801.21879,0.13406
799.72900,0.16317
798.23921,0.12264
796.74942,0.12399
795.25963,0.11270
793.76984,0.10144
792.28006,0.12717
790.79027,0.12736
789.30048,0.14262
787.81069,0.18822
786.32090,0.20891
784.83111,0.22963
783.34132,0.25024
781.85154,0.27113
780.36175,0.29054
778.87196,0.30985
777.38217,0.32919
775.89238,0.34291
774.40259,0.36116
772.91281,0.38571
771.42302,0.35113
769.93323,0.31658
768.44344,0.28732
766.95365,0.24104
765.46386,0.20480
763.97407,0.18288
762.48429,0.16875
760.99450,0.15465
759.50471,0.12704
758.01492,0.08842
756.52513,0.08567
755.03534,0.08344
753.54556,0.08124
752.05577,0.08382
750.56598,0.03956
749.07619,0.05523
747.58640,0.05964
746.09661,0.06408
744.60683,0.06729
743.11704,0.03067
741.62725,0.03944
740.13746,0.02405
738.64767,0.00869
737.15788,0.01904
735.66809,0.00460
734.17831,0.00741
732.68852,0.01275
731.19873,0.01811
729.70894,0.02199
728.21915,0.02841
726.72936,0.00553
725.23958,0.03022
723.74979,0.02650
722.26000,0.02280
720.77021,0.01173
719.28042,0.00795
717.79063,0.00395
716.30084,0.00758
714.81106,0.01123
713.32127,0.01628
711.83148,0.01811
710.34169,0.01770
708.85190,0.02145
707.36211,0.02522
705.87233,0.03191
704.38254,0.04037
702.89275,0.04910
701.40296,0.05298
699.91317,0.05688
698.42338,0.08273
696.93360,0.09031
695.44381,0.10443
693.95402,0.11244
692.46423,0.12047
690.97444,0.14745
689.48465,0.15640
687.99486,0.18393
686.50508,0.19043
685.01529,0.19696
683.52550,0.20676
682.03571,0.21985
680.54592,0.24500
679.05613,0.25400
677.56635,0.26303
676.07656,0.28875
674.58677,0.27665
673.09698,0.21720
671.60719,0.20202
670.11740,0.18686
668.62761,0.18413
667.13783,0.17266
665.64804,0.15594
664.15825,0.13925
662.66846,0.10880
661.17867,0.11497
659.68888,0.08432
658.19910,0.06847
656.70931,0.05266
655.21952,0.03687
653.72973,0.04391
652.23994,0.04546
650.75015,0.05455
649.26037,0.06367
647.77058,0.05653
646.28079,0.04890
644.79100,0.03428
643.30121,0.02884
641.81142,0.02342
640.32163,0.02968
638.83185,0.02042
637.34206,0.01721
635.85227,0.01439
634.36248,0.01160
632.87269,0.00395
631.38290,0.02805
629.89312,0.02487
628.40333,0.02935
626.91354,0.03386
625.42375,0.03525
623.93396,0.01964
622.44417,0.02597
620.95438,0.03233
619.46460,0.05763
617.97481,0.06016
616.48502,0.08376
614.99523,0.08984
613.50544,0.09595
612.01565,0.12764
610.52587,0.16462
609.03608,0.20689
607.54629,0.22212
606.05650,0.23737
604.56671,0.29600
603.07692,0.31707
601.58714,0.33101
600.09735,0.34498
598.60756,0.37264
597.11777,0.40458
595.62798,0.41073
594.13819,0.39334
592.64840,0.37599
591.15862,0.34311
589.66883,0.32279
588.17904,0.27719
586.68925,0.25867
585.19946,0.24018
583.70967,0.17686
582.21989,0.13661
580.73010,0.11218
579.24031,0.08777
577.75052,0.08094
576.26073,0.05106
574.77094,0.05330
573.28115,0.05167
571.79137,0.05007
570.30158,0.04460
568.81179,0.04142
567.32200,0.05355
565.83221,0.06571
564.34242,0.07538
562.85264,0.12468
561.36285,0.14643
559.87306,0.14728
558.38327,0.14815
556.89348,0.14842
555.40369,0.16075
553.91391,0.15343
552.42412,0.14613
550.93433,0.18660
549.44454,0.20028
547.95475,0.15082
546.46496,0.17933
544.97517,0.20787
543.48539,0.23393
541.99560,0.24372
540.50581,0.27271
539.01602,0.30172
537.52623,0.32336
536.03644,0.34628
534.54666,0.38126
533.05687,0.39496
531.56708,0.40868
530.07729,0.47130
528.58750,0.53569
527.09771,0.56979
525.60792,0.60391
524.11814,0.66863
522.62835,0.70355
521.13856,0.73524
519.64877,0.76357
518.15898,0.79192
516.66919,0.83020
515.17941,0.84569
513.68962,0.85683
512.19983,0.86799
510.71004,0.81539
509.22025,0.72045
507.73046,0.64861
506.24068,0.61237
504.75089,0.57616
503.26110,0.48283
501.77131,0.39404
500.28152,0.34449
498.79173,0.29497
497.30194,0.24309
495.81216,0.20527
494.32237,0.19179
492.83258,0.17833
491.34279,0.13632
489.85300,0.11690
488.36321,0.06617
486.87343,0.06221
485.38364,0.05827
483.89385,0.09032
482.40406,0.10660
480.91427,0.12129
479.42448,0.13599
477.93469,0.15285
476.44491,0.16122
474.95512,0.16171
473.46533,0.16223
471.97554,0.16165
470.48575,0.17236
468.99596,0.16957
467.50618,0.16881
466.01639,0.16807
464.52660,0.14105
463.03681,0.10277
461.54702,0.10210
460.05723,0.10146
458.56745,0.06827
457.07766,0.05841
455.58787,0.05371
454.09808,0.04903
452.60829,0.06305
451.11850,0.04075
449.62871,0.03101
448.13893,0.02130
446.64914,0.01687
445.15935,0.00395
443.66956,0.03951
442.17977,0.04653
440.68998,0.05357
439.20020,0.04259
437.71041,0.07500
436.22062,0.06620
434.73083,0.05742
433.24104,0.07286
431.75125,0.05950
430.26146,0.05794
428.77168,0.05641
427.28189,0.04613
425.79210,0.04189
424.30231,0.03780
422.81252,0.03373
421.32273,0.04259
419.83295,0.05274
418.34316,0.04749
416.85337,0.04227
415.36358,0.02041
413.87379,0.05539
412.38400,0.05756
410.89422,0.05976
409.40443,0.05823
407.91464,0.05822
406.42485,0.04170
404.93506,0.03748
403.44527,0.03329
401.95548,0.04616
400.46570,0.02547
398.97591,0.03840
397.48612,0.05134
395.99633,0.05103
394.50654,0.03145
393.01675,0.03820
391.52697,0.04128
390.03718,0.03712
388.54739,0.04952
387.05760,0.04879
385.56781,0.04809
384.07802,0.05229
382.58824,0.01717
381.09845,0.01479
379.60866,0.01242
378.11887,0.00395
376.62908,0.01576
375.13929,0.01545
373.64950,0.01516
372.15972,0.02729
370.66993,0.04673
369.18014,0.04260
367.69035,0.03851
366.20056,0.02930
364.71077,0.04593
363.22099,0.04278
361.73120,0.03966
360.24141,0.05762
358.75162,0.03324
357.26183,0.03145
355.77204,0.02968
354.28225,0.02292
352.79247,0.03624
351.30268,0.04331
349.81289,0.05041
348.32310,0.09989
346.83331,0.10027
345.34352,0.08790
343.85374,0.07555
342.36395,0.03190
340.87416,0.03488
339.38437,0.02248
337.89458,0.01010
336.40479,0.02219
334.91501,0.00723
333.42522,0.00557
331.93543,0.00395
330.44564,0.01206
328.95585,0.03424
327.46606,0.04704
325.97627,0.05987
324.48649,0.04854
322.99670,0.05553
321.50691,0.03560
320.01712,0.01569
318.52733,0.05896
317.03754,0.07519
315.54776,0.07440
314.05797,0.07364
312.56818,0.11776
311.07839,0.13584
309.58860,0.14017
308.09881,0.14451
306.60902,0.07570
305.11924,0.06982
303.62945,0.04555
302.13966,0.02130
300.64987,0.02201
299.16008,0.00395
