1778.52000,0.01899
1777.03021,0.02679
1775.54042,0.03046
1774.05063,0.02539
1772.56085,0.02406
1771.07106,0.01422
1769.58127,0.01688
1768.09148,0.02439
1766.60169,0.01352
1765.11190,0.02371
1763.62212,0.00413
1762.13233,0.01217
1760.64254,0.01126
1759.15275,0.01366
1757.66296,0.01608
1756.17317,0.01765
1754.68339,0.00960
1753.19360,0.01297
1751.70381,0.01636
1750.21402,0.00467
1748.72423,0.00132
1747.23444,0.00654
1745.74465,0.01288
1744.25487,0.00872
1742.76508,0.01380
1741.27529,0.02393
1739.78550,0.00430
1738.29571,0.00835
1736.80592,0.01505
1735.31614,0.00601
1733.82635,0.00706
1732.33656,0.01427
1730.84677,0.01341
1729.35698,0.00468
1727.86719,0.00955
1726.37740,0.00635
1724.88762,0.00273
1723.39783,0.00286
1721.90804,0.00367
1720.41825,0.00275
1718.92846,0.00483
1717.43867,0.01066
1715.94889,0.00600
1714.45910,0.00859
1712.96931,0.00704
1711.47952,0.00776
1709.98973,0.01179
1708.49994,0.00927
1707.01016,0.00864
1705.52037,0.00803
1704.03058,0.01479
1702.54079,0.01083
1701.05100,0.01369
1699.56121,0.00891
1698.07142,0.01029
1696.58164,0.01037
1695.09185,0.00413
1693.60206,0.02024
1692.11227,0.01732
1690.62248,0.02428
1689.13269,0.01877
1687.64291,0.02753
1686.15312,0.02098
1684.66333,0.02169
1683.17354,0.02789
1681.68375,0.02908
1680.19396,0.02745
1678.70417,0.02846
1677.21439,0.03717
1675.72460,0.04218
1674.23481,0.03999
1672.74502,0.03541
1671.25523,0.04071
1669.76544,0.05239
1668.27566,0.05818
1666.78587,0.06640
1665.29608,0.05274
1663.80629,0.05860
1662.31650,0.05419
1660.82671,0.07390
1659.33693,0.07392
1657.84714,0.07155
1656.35735,0.06702
1654.86756,0.07040
1653.37777,0.08059
1651.88798,0.05773
1650.39819,0.07366
1648.90841,0.07495
1647.41862,0.08436
1645.92883,0.08482
1644.43904,0.08530
1642.94925,0.08383
1641.45946,0.07735
1639.96968,0.08403
1638.47989,0.07475
1636.99010,0.09003
1635.50031,0.08561
1634.01052,0.08670
1632.52073,0.07642
1631.03094,0.07274
1629.54116,0.08858
1628.05137,0.08275
1626.56158,0.09863
1625.07179,0.09417
1623.58200,0.08338
1622.09221,0.07612
1620.60243,0.08312
1619.11264,0.08598
1617.62285,0.09916
1616.13306,0.09353
1614.64327,0.08858
1613.15348,0.08124
1611.66370,0.08466
1610.17391,0.08526
1608.68412,0.08610
1607.19433,0.07820
1605.70454,0.08085
1604.21475,0.07924
1602.72496,0.07766
1601.23518,0.07775
1599.74539,0.07807
1598.25560,0.08084
1596.76581,0.08450
1595.27602,0.08381
1593.78623,0.07481
1592.29645,0.07329
1590.80666,0.07639
1589.31687,0.07185
1587.82708,0.08946
1586.33729,0.07402
1584.84750,0.07546
1583.35771,0.05876
1581.86793,0.06025
1580.37814,0.07579
1578.88835,0.05981
1577.39856,0.05765
1575.90877,0.05158
1574.41898,0.04706
1572.92920,0.04870
1571.43941,0.03328
1569.94962,0.02829
1568.45983,0.02332
1566.97004,0.02747
1565.48025,0.02550
1563.99047,0.02050
1562.50068,0.01749
1561.01089,0.02283
1559.52110,0.01943
1558.03131,0.01649
1556.54152,0.00526
1555.05173,0.01660
1553.56195,0.02579
1552.07216,0.01616
1550.58237,0.01575
1549.09258,0.01559
1547.60279,0.00515
1546.11300,0.00000
1544.62322,0.00479
1543.13343,0.00654
1541.64364,0.00327
1540.15385,0.00528
1538.66406,0.00732
1537.17427,0.00413
1535.68448,0.01370
1534.19470,0.00556
1532.70491,0.01386
1531.21512,0.01715
1529.72533,0.02441
1528.23554,0.01023
1526.74575,0.01710
1525.25597,0.00998
1523.76618,0.02566
1522.27639,0.02099
1520.78660,0.02007
1519.29681,0.03100
1517.80702,0.02312
1516.31724,0.02425
1514.82745,0.01291
1513.33766,0.01901
1511.84787,0.02514
1510.35808,0.03578
1508.86829,0.04206
1507.37850,0.04990
1505.88872,0.04682
1504.39893,0.04989
1502.90914,0.04006
1501.41935,0.05654
1499.92956,0.05048
1498.43977,0.04993
1496.94999,0.06100
1495.46020,0.06334
1493.97041,0.07753
1492.48062,0.10007
1490.99083,0.10161
1489.50104,0.11566
1488.01125,0.12272
1486.52147,0.12980
1485.03168,0.15290
1483.54189,0.18150
1482.05210,0.17442
1480.56231,0.20044
1479.07252,0.22516
1477.58274,0.23634
1476.09295,0.26243
1474.60316,0.23751
1473.11337,0.25488
1471.62358,0.26221
1470.13379,0.26759
1468.64401,0.28066
1467.15422,0.30273
1465.66443,0.32144
1464.17464,0.34017
1462.68485,0.36910
1461.19506,0.38645
1459.70527,0.42771
1458.21549,0.47468
1456.72570,0.52343
1455.23591,0.57505
1453.74612,0.64684
1452.25633,0.69369
1450.76654,0.72129
1449.27676,0.72197
1447.78697,0.70274
1446.29718,0.69843
1444.80739,0.68078
1443.31760,0.66316
1441.82781,0.62606
1440.33802,0.57081
1438.84824,0.53070
1437.35845,0.50332
1435.86866,0.47881
1434.37887,0.49046
1432.88908,0.53478
1431.39929,0.59116
1429.90951,0.67276
1428.41972,0.70905
1426.92993,0.77471
1425.44014,0.81695
1423.95035,0.85320
1422.46056,0.88947
1420.97078,0.94165
1419.48099,0.97194
1417.99120,0.94641
1416.50141,0.89899
1415.01162,0.86978
1413.52183,0.84322
1412.03204,0.79413
1410.54226,0.76170
1409.05247,0.70893
1407.56268,0.64326
1406.07289,0.58791
1404.58310,0.53773
1403.09331,0.48757
1401.60353,0.44828
1400.11374,0.39018
1398.62395,0.35686
1397.13416,0.30274
1395.64437,0.25742
1394.15458,0.23052
1392.66479,0.18283
1391.17501,0.15620
1389.68522,0.13725
1388.19543,0.10059
1386.70564,0.08871
1385.21585,0.07684
1383.72606,0.05712
1382.23628,0.03304
1380.74649,0.03527
1379.25670,0.03336
1377.76691,0.02338
1376.27712,0.02239
1374.78733,0.00413
1373.29755,0.01302
1371.80776,0.00990
1370.31797,0.00986
1368.82818,0.01072
1367.33839,0.01161
1365.84860,0.02018
1364.35881,0.03930
1362.86903,0.03194
1361.37924,0.05526
1359.88945,0.07270
1358.39966,0.10615
1356.90987,0.11750
1355.42008,0.16567
1353.93030,0.22942
1352.44051,0.25760
1350.95072,0.28581
1349.46093,0.37175
1347.97114,0.46298
1346.48135,0.53233
1344.99156,0.58243
1343.50178,0.67570
1342.01199,0.74249
1340.52220,0.78652
1339.03241,0.84395
1337.54262,0.86240
1336.05283,0.88209
1334.56305,0.90179
1333.07326,0.92952
1331.58347,0.97458
1330.09368,0.95723
1328.60389,0.91844
1327.11410,0.89852
1325.62432,0.85496
1324.13453,0.82785
1322.64474,0.79639
1321.15495,0.76802
1319.66516,0.75401
1318.17537,0.74004
1316.68558,0.66245
1315.19580,0.58205
1313.70601,0.53868
1312.21622,0.50585
1310.72643,0.47086
1309.23664,0.45210
1307.74685,0.42548
1306.25707,0.38924
1304.76728,0.37066
1303.27749,0.35211
1301.78770,0.31310
1300.29791,0.28288
1298.80812,0.23866
1297.31834,0.19709
1295.82855,0.16540
1294.33876,0.14382
1292.84897,0.11919
1291.35918,0.10773
1289.86939,0.10626
1288.37960,0.10481
1286.88982,0.11139
1285.40003,0.10134
1283.91024,0.08934
1282.42045,0.06992
1280.93066,0.05031
1279.44087,0.07058
1277.95109,0.05802
1276.46130,0.04921
1274.97151,0.04262
1273.48172,0.03605
1271.99193,0.02643
1270.50214,0.03481
1269.01235,0.02634
1267.52257,0.02731
1266.03278,0.03181
1264.54299,0.03393
1263.05320,0.02687
1261.56341,0.02586
1260.07362,0.02487
1258.58384,0.01132
1257.09405,0.00611
1255.60426,0.00662
1254.11447,0.00562
1252.62468,0.01231
1251.13489,0.00413
1249.64511,0.03028
1248.15532,0.02776
1246.66553,0.02275
1245.17574,0.01776
1243.68595,0.02342
1242.19616,0.01509
1240.70637,0.01751
1239.21659,0.01776
1237.72680,0.01169
1236.23701,0.03500
1234.74722,0.03642
1233.25743,0.03162
1231.76764,0.02685
1230.27786,0.02287
1228.78807,0.01081
1227.29828,0.02572
1225.80849,0.01371
1224.31870,0.00413
1222.82891,0.00600
1221.33912,0.02455
1219.84934,0.03381
1218.35955,0.04310
1216.86976,0.05274
1215.37997,0.06459
1213.89018,0.05873
1212.40039,0.05596
1210.91061,0.05518
1209.42082,0.07304
1207.93103,0.06673
1206.44124,0.06044
1204.95145,0.06523
1203.46166,0.07027
1201.97188,0.07161
1200.48209,0.06596
1198.99230,0.05815
1197.50251,0.06197
1196.01272,0.05026
1194.52293,0.05074
1193.03314,0.05123
1191.54336,0.04113
1190.05357,0.03237
1188.56378,0.02429
1187.07399,0.01645
1185.58420,0.03119
1184.09441,0.00413
1182.60463,0.01325
1181.11484,0.02239
1179.62505,0.01896
1178.13526,0.00526
1176.64547,0.01173
1175.15568,0.00400
1173.66589,0.00470
1172.17611,0.01573
1170.68632,0.00992
1169.19653,0.00413
1167.70674,0.01314
1166.21695,0.00684
1164.72716,0.01700
1163.23738,0.04142
1161.74759,0.06630
1160.25780,0.07872
1158.76801,0.07561
1157.27822,0.07252
1155.78843,0.08655
1154.29865,0.07935
1152.80886,0.10437
1151.31907,0.09700
1149.82928,0.10674
1148.33949,0.12067
1146.84970,0.11688
1145.35991,0.11311
1143.87013,0.12908
1142.38034,0.13631
1140.89055,0.13722
1139.40076,0.14800
1137.91097,0.15049
1136.42118,0.17250
1134.93140,0.18587
1133.44161,0.19927
1131.95182,0.20339
1130.46203,0.22396
1128.97224,0.20863
1127.48245,0.21041
1125.99266,0.21199
1124.50288,0.19367
1123.01309,0.21129
1121.52330,0.22894
1120.03351,0.21135
1118.54372,0.22860
1117.05393,0.22179
1115.56415,0.23209
1114.07436,0.24131
1112.58457,0.23085
1111.09478,0.22041
1109.60499,0.21678
1108.11520,0.22983
1106.62542,0.22450
1105.13563,0.21131
1103.64584,0.21632
1102.15605,0.19836
1100.66626,0.19137
1099.17647,0.18441
1097.68668,0.19938
1096.19690,0.21897
1094.70711,0.20814
1093.21732,0.19580
1091.72753,0.17034
1090.23774,0.17251
1088.74795,0.17470
1087.25817,0.18107
1085.76838,0.17849
1084.27859,0.16717
1082.78880,0.18720
1081.29901,0.20112
1079.80922,0.19776
1078.31943,0.21654
1076.82965,0.23535
1075.33986,0.24718
1073.85007,0.23209
1072.36028,0.23147
1070.87049,0.24731
1069.38070,0.26493
1067.89092,0.29670
1066.40113,0.32849
1064.91134,0.41036
1063.42155,0.46991
1061.93176,0.55490
1060.44197,0.66992
1058.95219,0.77006
1057.46240,0.82292
1055.97261,0.87580
1054.48282,0.93791
1052.99303,0.99368
1051.50324,1.04401
1050.01345,1.11276
1048.52367,1.11801
1047.03388,1.07356
1045.54409,1.02914
1044.05430,0.93896
1042.56451,0.87027
1041.07472,0.80643
1039.58494,0.73691
1038.09515,0.65362
1036.60536,0.60376
1035.11557,0.55392
1033.62578,0.50246
1032.13599,0.42693
1030.64620,0.37136
1029.15642,0.30289
1027.66663,0.28526
1026.17684,0.26765
1024.68705,0.22182
1023.19726,0.17819
1021.70747,0.17008
1020.21769,0.16725
1018.72790,0.16159
1017.23811,0.15728
1015.74832,0.15298
1014.25853,0.11542
1012.76874,0.12607
1011.27896,0.10477
1009.78917,0.09860
1008.29938,0.06924
1006.80959,0.07319
1005.31980,0.07717
1003.83001,0.02948
1002.34022,0.04096
1000.85044,0.04239
999.36065,0.05084
997.87086,0.05560
996.38107,0.06039
994.89128,0.06936
993.40149,0.09127
991.91171,0.11825
990.42192,0.13978
988.93213,0.12782
987.44234,0.13318
985.95255,0.13857
984.46276,0.13917
982.97297,0.13344
981.48319,0.10495
979.99340,0.09182
978.50361,0.08605
977.01382,0.08030
975.52403,0.05476
974.03424,0.04282
972.54446,0.02148
971.05467,0.01814
969.56488,0.01547
968.07509,0.01513
966.58530,0.01481
965.09551,0.00411
963.60573,0.01786
962.11594,0.01434
960.62615,0.02048
959.13636,0.01229
957.64657,0.00413
956.15678,0.01105
954.66699,0.02238
953.17721,0.03330
951.68742,0.03263
950.19763,0.03538
948.70784,0.03815
947.21805,0.06734
945.72826,0.07071
944.23848,0.09448
942.74869,0.10009
941.25890,0.13069
939.76911,0.13876
938.27932,0.14685
936.78953,0.15781
935.29974,0.17033
933.80996,0.19492
932.32017,0.21691
930.83038,0.22117
929.34059,0.22547
927.85080,0.23175
926.36101,0.26326
924.87123,0.28449
923.38144,0.35218
921.89165,0.37981
920.40186,0.40747
918.91207,0.47480
917.42228,0.59121
915.93250,0.73153
914.44271,0.92247
912.95292,1.01892
911.46313,1.11539
909.97334,1.34408
908.48355,1.57169
906.99376,1.79298
905.50398,1.91003
904.01419,1.94627
902.52440,1.98254
901.03461,2.00000
899.54482,1.92548
898.05503,1.80192
896.56525,1.56996
895.07546,1.45018
893.58567,1.33042
892.09588,1.11758
890.60609,0.86842
889.11630,0.63263
887.62651,0.47814
886.13673,0.40078
884.64694,0.32343
883.15715,0.23954
881.66736,0.19401
880.17757,0.14434
878.68778,0.12525
877.19800,0.10619
875.70821,0.07871
874.21842,0.05849
872.72863,0.04333
871.23884,0.04046
869.74905,0.03083
868.25927,0.02122
866.76948,0.02390
865.27969,0.03120
863.78990,0.03853
862.30011,0.05596
860.81032,0.05928
859.32053,0.06263
857.83075,0.07553
856.34096,0.09897
854.85117,0.12353
853.36138,0.12993
851.87159,0.14292
850.38180,0.15595
848.89202,0.19988
847.40223,0.20112
845.91244,0.22998
844.42265,0.23522
842.93286,0.24047
841.44307,0.25539
839.95329,0.26201
838.46350,0.27435
836.97371,0.27204
835.48392,0.28136
833.99413,0.29070
832.50434,0.29240
831.01455,0.28055
829.52477,0.27442
828.03498,0.24180
826.54519,0.22224
825.05540,0.20271
823.56561,0.18156
822.07582,0.18014
820.58604,0.13955
819.09625,0.14234
817.60646,0.14516
816.11667,0.15173
814.62688,0.15964
813.13709,0.15859
811.64730,0.15077
810.15752,0.14451
808.66773,0.13828
807.17794,0.12944
805.68815,0.15786
804.19836,0.17185
802.70857,0.17261
801.21879,0.17340
799.72900,0.15986
798.23921,0.13189
796.74942,0.14776
795.25963,0.14623
793.76984,0.14473
792.28006,0.16242
790.79027,0.17224
789.30048,0.19765
787.81069,0.22220
786.32090,0.23735
784.83111,0.25253
783.34132,0.29556
781.85154,0.32612
780.36175,0.34553
778.87196,0.35972
777.38217,0.37392
775.89238,0.41794
774.40259,0.41993
772.91281,0.43618
771.42302,0.40153
769.93323,0.36690
768.44344,0.34182
766.95365,0.30297
765.46386,0.26305
763.97407,0.22534
762.48429,0.19839
760.99450,0.17146
759.50471,0.12068
758.01492,0.10213
756.52513,0.08732
755.03534,0.08623
753.54556,0.08516
752.05577,0.08817
750.56598,0.09032
749.07619,0.05746
747.58640,0.05276
746.09661,0.04809
744.60683,0.03851
743.11704,0.03247
741.62725,0.02820
740.13746,0.02242
738.64767,0.01666
737.15788,0.00765
735.66809,0.00413
734.17831,0.00542
732.68852,0.01386
731.19873,0.02232
729.70894,0.01251
728.21915,0.02398
726.72936,0.02824
725.23958,0.01347
723.74979,0.01132
722.26000,0.00919
720.77021,0.00566
719.28042,0.00413
717.79063,0.00409
716.30084,0.01075
714.81106,0.01744
713.32127,0.02514
711.83148,0.01578
710.34169,0.01630
708.85190,0.01498
707.36211,0.01369
705.87233,0.03268
704.38254,0.04381
702.89275,0.04752
701.40296,0.04150
699.91317,0.03551
698.42338,0.05900
696.93360,0.07836
695.44381,0.07255
693.95402,0.08670
692.46423,0.10087
690.97444,0.14069
689.48465,0.14746
687.99486,0.18011
686.50508,0.18999
685.01529,0.19990
683.52550,0.19560
682.03571,0.21761
680.54592,0.23482
679.05613,0.23859
677.56635,0.24238
676.07656,0.25550
674.58677,0.24762
673.09698,0.20055
671.60719,0.18385
670.11740,0.16717
668.62761,0.15588
667.13783,0.13980
665.64804,0.13337
664.15825,0.12698
662.66846,0.11031
661.17867,0.07724
659.68888,0.06084
658.19910,0.05859
656.70931,0.05636
655.21952,0.03653
653.72973,0.04520
652.23994,0.04425
650.75015,0.04420
649.26037,0.04418
647.77058,0.04352
646.28079,0.03720
644.79100,0.03155
643.30121,0.02944
641.81142,0.02734
640.32163,0.03645
638.83185,0.02739
637.34206,0.02559
635.85227,0.02272
634.36248,0.01988
632.87269,0.00413
631.38290,0.00932
629.89312,0.01323
628.40333,0.01355
626.91354,0.01389
625.42375,0.02487
623.93396,0.01902
622.44417,0.01735
620.95438,0.01571
619.46460,0.03030
617.97481,0.03746
616.48502,0.05429
614.99523,0.07300
613.50544,0.09174
612.01565,0.11806
610.52587,0.15601
609.03608,0.19859
607.54629,0.21020
606.05650,0.22183
604.56671,0.29952
603.07692,0.34154
601.58714,0.35357
600.09735,0.36563
598.60756,0.42305
597.11777,0.43274
595.62798,0.43698
594.13819,0.42811
592.64840,0.41926
591.15862,0.36377
589.66883,0.32518
588.17904,0.26427
586.68925,0.24237
585.19946,0.22050
583.70967,0.17653
582.21989,0.16346
580.73010,0.13958
579.24031,0.11573
577.75052,0.09529
576.26073,0.06896
574.77094,0.06631
573.28115,0.06073
571.79137,0.05518
570.30158,0.07034
568.81179,0.09298
567.32200,0.10316
565.83221,0.11336
564.34242,0.15272
562.85264,0.14830
561.36285,0.16361
559.87306,0.17698
558.38327,0.19037
556.89348,0.19327
555.40369,0.21788
553.91391,0.22345
552.42412,0.22905
550.93433,0.21168
549.44454,0.21864
547.95475,0.21862
546.46496,0.22213
544.97517,0.22566
543.48539,0.24805
541.99560,0.28997
540.50581,0.32500
539.01602,0.36006
537.52623,0.38847
536.03644,0.40748
534.54666,0.42410
533.05687,0.43856
531.56708,0.45304
530.07729,0.52581
528.58750,0.53859
527.09771,0.56968
525.60792,0.60080
524.11814,0.63862
522.62835,0.71699
521.13856,0.79845
519.64877,0.79889
518.15898,0.79935
516.66919,0.85985
515.17941,0.89541
513.68962,0.88872
512.19983,0.88205
510.71004,0.82239
509.22025,0.75291
507.73046,0.67140
506.24068,0.62507
504.75089,0.57876
503.26110,0.50324
501.77131,0.36991
500.28152,0.34789
498.79173,0.32588
497.30194,0.24498
495.81216,0.19827
494.32237,0.17722
492.83258,0.15618
491.34279,0.12554
489.85300,0.10368
488.36321,0.08294
486.87343,0.08413
485.38364,0.08534
483.89385,0.10213
482.40406,0.10558
480.91427,0.11256
479.42448,0.11957
477.93469,0.14434
476.44491,0.18009
474.95512,0.19177
473.46533,0.20347
471.97554,0.23096
470.48575,0.22168
468.99596,0.20016
467.50618,0.19521
466.01639,0.19027
464.52660,0.15984
463.03681,0.12549
461.54702,0.11045
460.05723,0.09542
458.56745,0.07363
457.07766,0.07399
455.58787,0.06211
454.09808,0.05025
452.60829,0.03776
451.11850,0.02200
449.62871,0.02686
448.13893,0.03174
446.64914,0.01738
445.15935,0.00413
443.66956,0.03078
442.17977,0.02624
440.68998,0.02172
439.20020,0.03311
437.71041,0.04365
436.22062,0.03669
434.73083,0.02975
433.24104,0.03094
431.75125,0.03434
430.26146,0.02824
428.77168,0.02217
427.28189,0.03200
425.79210,0.04448
424.30231,0.05042
422.81252,0.05638
421.32273,0.06411
419.83295,0.04449
418.34316,0.03410
416.85337,0.02373
415.36358,0.02367
413.87379,0.02277
412.38400,0.02441
410.89422,0.02607
409.40443,0.03750
407.91464,0.03911
406.42485,0.03679
404.93506,0.04249
403.44527,0.04822
401.95548,0.04772
400.46570,0.02294
398.97591,0.02513
397.48612,0.02734
395.99633,0.01730
394.50654,0.02197
393.01675,0.02206
391.52697,0.01808
390.03718,0.02705
388.54739,0.05422
387.05760,0.04593
385.56781,0.03766
384.07802,0.01978
382.58824,0.01244
381.09845,0.01060
379.60866,0.00878
378.11887,0.02145
376.62908,0.00413
375.13929,0.02058
373.64950,0.03705
372.15972,0.02869
370.66993,0.03721
369.18014,0.02829
367.69035,0.01940
366.20056,0.03495
364.71077,0.04352
363.22099,0.03492
361.73120,0.02634
360.24141,0.02184
358.75162,0.03160
357.26183,0.04500
355.77204,0.05842
354.28225,0.05445
352.79247,0.03299
351.30268,0.03871
349.81289,0.04445
348.32310,0.05372
346.83331,0.05711
345.34352,0.05076
343.85374,0.04445
342.36395,0.03257
340.87416,0.03101
339.38437,0.02663
337.89458,0.02227
336.40479,0.03283
334.91501,0.02458
333.42522,0.02128
331.93543,0.01800
330.44564,0.00413
328.95585,0.01760
327.46606,0.02014
325.97627,0.02271
324.48649,0.03828
322.99670,0.06462
321.50691,0.07214
320.01712,0.07969
318.52733,0.07127
317.03754,0.06112
315.54776,0.05703
314.05797,0.05295
312.56818,0.06412
311.07839,0.09438
309.58860,0.06650
308.09881,0.03864
306.60902,0.03524
305.11924,0.03492
303.62945,0.03310
302.13966,0.03130
300.64987,0.00499
299.16008,0.00413
