1778.52000,0.01601
1777.03021,0.00761
1775.54042,0.00393
1774.05063,0.01435
1772.56085,0.01838
1771.07106,0.03602
1769.58127,0.04133
1768.09148,0.03160
1766.60169,0.01621
1765.11190,0.01937
1763.62212,0.02108
1762.13233,0.01589
1760.64254,0.03049
1759.15275,0.02956
1757.66296,0.02420
1756.17317,0.01615
1754.68339,0.01035
1753.19360,0.01865
1751.70381,0.01611
1750.21402,0.02076
1748.72423,0.01061
1747.23444,0.02446
1745.74465,0.02226
1744.25487,0.01318
1742.76508,0.01474
1741.27529,0.01460
1739.78550,0.01349
1738.29571,0.02551
1736.80592,0.04348
1735.31614,0.03652
1733.82635,0.00809
1732.33656,0.00341
1730.84677,0.00517
1729.35698,0.02574
1727.86719,0.04435
1726.37740,0.03408
1724.88762,0.02211
1723.39783,0.02054
1721.90804,0.00393
1720.41825,0.01093
1718.92846,0.01870
1717.43867,0.02377
1715.94889,0.01504
1714.45910,0.03277
1712.96931,0.01716
1711.47952,0.02012
1709.98973,0.01964
1708.49994,0.01128
1707.01016,0.01443
1705.52037,0.01760
1704.03058,0.02834
1702.54079,0.04157
1701.05100,0.03877
1699.56121,0.03377
1698.07142,0.03028
1696.58164,0.02286
1695.09185,0.03894
1693.60206,0.04565
1692.11227,0.02966
1690.62248,0.06014
1689.13269,0.04049
1687.64291,0.05150
1686.15312,0.05019
1684.66333,0.03976
1683.17354,0.05282
1681.68375,0.05875
1680.19396,0.05555
1678.70417,0.07314
1677.21439,0.05073
1675.72460,0.05404
1674.23481,0.04477
1672.74502,0.05356
1671.25523,0.07844
1669.76544,0.06900
1668.27566,0.07885
1666.78587,0.07416
1665.29608,0.07418
1663.80629,0.07522
1662.31650,0.08888
1660.82671,0.06724
1659.33693,0.09083
1657.84714,0.07640
1656.35735,0.06744
1654.86756,0.07949
1653.37777,0.07379
1651.88798,0.08145
1650.39819,0.06987
1648.90841,0.09808
1647.41862,0.08556
1645.92883,0.08307
1644.43904,0.08060
1642.94925,0.08890
1641.45946,0.08982
1639.96968,0.08163
1638.47989,0.06827
1636.99010,0.08087
1635.50031,0.07028
1634.01052,0.07206
1632.52073,0.06103
1631.03094,0.07398
1629.54116,0.08646
1628.05137,0.10613
1626.56158,0.11200
1625.07179,0.09787
1623.58200,0.08180
1622.09221,0.08131
1620.60243,0.06158
1619.11264,0.07449
1617.62285,0.07581
1616.13306,0.09197
1614.64327,0.08445
1613.15348,0.11845
1611.66370,0.09171
1610.17391,0.08723
1608.68412,0.09784
1607.19433,0.09933
1605.70454,0.09196
1604.21475,0.09177
1602.72496,0.09161
1601.23518,0.07023
1599.74539,0.05925
1598.25560,0.07349
1596.76581,0.08307
1595.27602,0.07982
1593.78623,0.08377
1592.29645,0.08650
1590.80666,0.07690
1589.31687,0.06561
1587.82708,0.06446
1586.33729,0.07965
1584.84750,0.07682
1583.35771,0.09379
1581.86793,0.08261
1580.37814,0.06776
1578.88835,0.07368
1577.39856,0.06678
1575.90877,0.06386
1574.41898,0.04886
1572.92920,0.04846
1571.43941,0.06168
1569.94962,0.05713
1568.45983,0.05260
1566.97004,0.04168
1565.48025,0.04288
1563.99047,0.04066
1562.50068,0.03772
1561.01089,0.04666
1559.52110,0.04624
1558.03131,0.04831
1556.54152,0.03558
1555.05173,0.03894
1553.56195,0.02775
1552.07216,0.01560
1550.58237,0.02224
1549.09258,0.02965
1547.60279,0.03512
1546.11300,0.03739
1544.62322,0.03104
1543.13343,0.01237
1541.64364,0.00557
1540.15385,0.00474
1538.66406,0.00393
1537.17427,0.01513
1535.68448,0.02587
1534.19470,0.01662
1532.70491,0.02716
1531.21512,0.02685
1529.72533,0.03917
1528.23554,0.03027
1526.74575,0.04338
1525.25597,0.03354
1523.76618,0.03805
1522.27639,0.03592
1520.78660,0.02813
1519.29681,0.03988
1517.80702,0.04969
1516.31724,0.04173
1514.82745,0.06467
1513.33766,0.06207
1511.84787,0.05950
1510.35808,0.03583
1508.86829,0.04257
1507.37850,0.05575
1505.88872,0.04649
1504.39893,0.04984
1502.90914,0.06311
1501.41935,0.05713
1499.92956,0.06550
1498.43977,0.07464
1496.94999,0.06256
1495.46020,0.07446
1493.97041,0.09307
1492.48062,0.09143
1490.99083,0.09057
1489.50104,0.09838
1488.01125,0.11041
1486.52147,0.12247
1485.03168,0.12788
1483.54189,0.15925
1482.05210,0.15533
1480.56231,0.15933
1479.07252,0.19350
1477.58274,0.21534
1476.09295,0.21152
1474.60316,0.22971
1473.11337,0.24915
1471.62358,0.26442
1470.13379,0.25798
1468.64401,0.26515
1467.15422,0.25851
1465.66443,0.27265
1464.17464,0.28681
1462.68485,0.31038
1461.19506,0.33374
1459.70527,0.38948
1458.21549,0.44203
1456.72570,0.48992
1455.23591,0.57687
1453.74612,0.66532
1452.25633,0.72119
1450.76654,0.71532
1449.27676,0.70897
1447.78697,0.70612
1446.29718,0.68278
1444.80739,0.66688
1443.31760,0.65101
1441.82781,0.61589
1440.33802,0.56449
1438.84824,0.54943
1437.35845,0.51883
1435.86866,0.48505
1434.37887,0.47105
1432.88908,0.51094
1431.39929,0.55456
1429.90951,0.65231
1428.41972,0.72216
1426.92993,0.78315
1425.44014,0.81773
1423.95035,0.85665
1422.46056,0.89560
1420.97078,0.92432
1419.48099,0.95332
1417.99120,0.97048
1416.50141,0.93727
1415.01162,0.92978
1413.52183,0.86228
1412.03204,0.81259
1410.54226,0.75008
1409.05247,0.69871
1407.56268,0.62735
1406.07289,0.57233
1404.58310,0.54834
1403.09331,0.52437
1401.60353,0.46991
1400.11374,0.43426
1398.62395,0.37640
1397.13416,0.33066
1395.64437,0.24740
1394.15458,0.22766
1392.66479,0.18522
1391.17501,0.13686
1389.68522,0.08953
1388.19543,0.08693
1386.70564,0.07534
1385.21585,0.06378
1383.72606,0.06176
1382.23628,0.03085
1380.74649,0.01529
1379.25670,0.01432
1377.76691,0.01388
1376.27712,0.00654
1374.78733,0.00393
1373.29755,0.01509
1371.80776,0.00850
1370.31797,0.01502
1368.82818,0.02280
1367.33839,0.03061
1365.84860,0.02979
1364.35881,0.03938
1362.86903,0.05838
1361.37924,0.06407
1359.88945,0.06607
1358.39966,0.10269
1356.90987,0.11759
1355.42008,0.16488
1353.93030,0.25098
1352.44051,0.27732
1350.95072,0.30368
1349.46093,0.38121
1347.97114,0.42789
1346.48135,0.48471
1344.99156,0.55367
1343.50178,0.62389
1342.01199,0.72329
1340.52220,0.79948
1339.03241,0.85347
1337.54262,0.90699
1336.05283,0.92619
1334.56305,0.94542
1333.07326,0.94491
1331.58347,0.92071
1330.09368,0.90988
1328.60389,0.92253
1327.11410,0.93077
1325.62432,0.88098
1324.13453,0.84875
1322.64474,0.76046
1321.15495,0.72804
1319.66516,0.72318
1318.17537,0.71835
1316.68558,0.65240
1315.19580,0.64330
1313.70601,0.60087
1312.21622,0.56093
1310.72643,0.52127
1309.23664,0.47051
1307.74685,0.41237
1306.25707,0.40095
1304.76728,0.37386
1303.27749,0.34680
1301.78770,0.31939
1300.29791,0.28460
1298.80812,0.23081
1297.31834,0.21435
1295.82855,0.15913
1294.33876,0.16124
1292.84897,0.12386
1291.35918,0.11021
1289.86939,0.10623
1288.37960,0.10227
1286.88982,0.08697
1285.40003,0.07516
1283.91024,0.09178
1282.42045,0.07656
1280.93066,0.05444
1279.44087,0.05063
1277.95109,0.04512
1276.46130,0.03222
1274.97151,0.02676
1273.48172,0.02132
1271.99193,0.03370
1270.50214,0.03078
1269.01235,0.06248
1267.52257,0.05590
1266.03278,0.03873
1264.54299,0.05494
1263.05320,0.04844
1261.56341,0.04036
1260.07362,0.03231
1258.58384,0.02589
1257.09405,0.00393
1255.60426,0.02544
1254.11447,0.01955
1252.62468,0.03370
1251.13489,0.02885
1249.64511,0.03984
1248.15532,0.01651
1246.66553,0.01582
1245.17574,0.01514
1243.68595,0.01314
1242.19616,0.04426
1240.70637,0.03761
1239.21659,0.04408
1237.72680,0.03329
1236.23701,0.03239
1234.74722,0.03227
1233.25743,0.03674
1231.76764,0.04123
1230.27786,0.03130
1228.78807,0.01843
1227.29828,0.03350
1225.80849,0.01277
1224.31870,0.00393
1222.82891,0.02890
1221.33912,0.01487
1219.84934,0.01235
1218.35955,0.00985
1216.86976,0.02851
1215.37997,0.05287
1213.89018,0.04365
1212.40039,0.08141
1210.91061,0.07570
1209.42082,0.05890
1207.93103,0.04794
1206.44124,0.03700
1204.95145,0.04350
1203.46166,0.04162
1201.97188,0.02742
1200.48209,0.01473
1198.99230,0.00947
1197.50251,0.02796
1196.01272,0.02522
1194.52293,0.02523
1193.03314,0.02526
1191.54336,0.01148
1190.05357,0.03404
1188.56378,0.03439
1187.07399,0.02934
1185.58420,0.02579
1184.09441,0.01880
1182.60463,0.01135
1181.11484,0.00393
1179.62505,0.01797
1178.13526,0.01820
1176.64547,0.01995
1175.15568,0.00393
1173.66589,0.02504
1172.17611,0.02123
1170.68632,0.01646
1169.19653,0.01171
1167.70674,0.02083
1166.21695,0.02749
1164.72716,0.03097
1163.23738,0.03794
1161.74759,0.03233
1160.25780,0.05688
1158.76801,0.05626
1157.27822,0.05567
1155.78843,0.06646
1154.29865,0.07284
1152.80886,0.07627
1151.31907,0.08517
1149.82928,0.08470
1148.33949,0.09735
1146.84970,0.11397
1145.35991,0.13063
1143.87013,0.14113
1142.38034,0.13955
1140.89055,0.12465
1139.40076,0.16043
1137.91097,0.16782
1136.42118,0.17968
1134.93140,0.19651
1133.44161,0.21336
1131.95182,0.23568
1130.46203,0.23973
1128.97224,0.20725
1127.48245,0.21506
1125.99266,0.23426
1124.50288,0.25151
1123.01309,0.25150
1121.52330,0.25150
1120.03351,0.21596
1118.54372,0.22911
1117.05393,0.21783
1115.56415,0.22090
1114.07436,0.22103
1112.58457,0.21872
1111.09478,0.21643
1109.60499,0.21343
1108.11520,0.22626
1106.62542,0.24578
1105.13563,0.21395
1103.64584,0.21772
1102.15605,0.18223
1100.66626,0.18938
1099.17647,0.19655
1097.68668,0.18930
1096.19690,0.18208
1094.70711,0.19933
1093.21732,0.17536
1091.72753,0.17315
1090.23774,0.15367
1088.74795,0.13422
1087.25817,0.17680
1085.76838,0.16110
1084.27859,0.13925
1082.78880,0.13991
1081.29901,0.13392
1079.80922,0.15983
1078.31943,0.15513
1076.82965,0.15045
1075.33986,0.16828
1073.85007,0.19033
1072.36028,0.20130
1070.87049,0.20710
1069.38070,0.22453
1067.89092,0.23050
1066.40113,0.23650
1064.91134,0.27649
1063.42155,0.35382
1061.93176,0.46402
1060.44197,0.50681
1058.95219,0.58223
1057.46240,0.64446
1055.97261,0.70671
1054.48282,0.79555
1052.99303,0.83574
1051.50324,0.85718
1050.01345,0.85370
1048.52367,0.87643
1047.03388,0.86521
1045.54409,0.85402
1044.05430,0.80196
1042.56451,0.73536
1041.07472,0.64185
1039.58494,0.58196
1038.09515,0.52952
1036.60536,0.51205
1035.11557,0.49461
1033.62578,0.47188
1032.13599,0.40990
1030.64620,0.32200
1029.15642,0.30652
1027.66663,0.28278
1026.17684,0.25906
1024.68705,0.22710
1023.19726,0.18948
1021.70747,0.17535
1020.21769,0.13531
1018.72790,0.14421
1017.23811,0.11966
1015.74832,0.09513
1014.25853,0.10089
1012.76874,0.09062
1011.27896,0.07840
1009.78917,0.10993
1008.29938,0.09158
1006.80959,0.08314
1005.31980,0.07473
1003.83001,0.05695
1002.34022,0.01177
1000.85044,0.00393
999.36065,0.02284
997.87086,0.03733
996.38107,0.05185
994.89128,0.06664
993.40149,0.06267
991.91171,0.07405
990.42192,0.08818
988.93213,0.09763
987.44234,0.07796
985.95255,0.05831
984.46276,0.06957
982.97297,0.06949
981.48319,0.07289
979.99340,0.03778
978.50361,0.02666
977.01382,0.01556
975.52403,0.00547
974.03424,0.00925
972.54446,0.00811
971.05467,0.01243
969.56488,0.00393
968.07509,0.01346
966.58530,0.02301
965.09551,0.00900
963.60573,0.02639
962.11594,0.01193
960.62615,0.00318
959.13636,0.00668
957.64657,0.01020
956.15678,0.02375
954.66699,0.04351
953.17721,0.06081
951.68742,0.05542
950.19763,0.06302
948.70784,0.07064
947.21805,0.06878
945.72826,0.07979
944.23848,0.09577
942.74869,0.11696
941.25890,0.12854
939.76911,0.13767
938.27932,0.14683
936.78953,0.19332
935.29974,0.20179
933.80996,0.21794
932.32017,0.21559
930.83038,0.22450
929.34059,0.23344
927.85080,0.26550
926.36101,0.25485
924.87123,0.28202
923.38144,0.33763
921.89165,0.36856
920.40186,0.39951
918.91207,0.47347
917.42228,0.58131
915.93250,0.72919
914.44271,0.96456
912.95292,1.05629
911.46313,1.14804
909.97334,1.33802
908.48355,1.58460
906.99376,1.77908
905.50398,1.95605
904.01419,1.97801
902.52440,2.00000
901.03461,1.96828
899.54482,1.99341
898.05503,1.88713
896.56525,1.69515
895.07546,1.58089
893.58567,1.46666
892.09588,1.17494
890.60609,0.88622
889.11630,0.65187
887.62651,0.52230
886.13673,0.44907
884.64694,0.37588
883.15715,0.26145
881.66736,0.17299
880.17757,0.12185
878.68778,0.10842
877.19800,0.09501
875.70821,0.08052
874.21842,0.04159
872.72863,0.00393
871.23884,0.02947
869.74905,0.01885
868.25927,0.00826
866.76948,0.04599
865.27969,0.01333
863.78990,0.03283
862.30011,0.04172
860.81032,0.04249
859.32053,0.04329
857.83075,0.07277
856.34096,0.08819
854.85117,0.08165
853.36138,0.07711
851.87159,0.07742
850.38180,0.07774
848.89202,0.11133
847.40223,0.13629
845.91244,0.14348
844.42265,0.14786
842.93286,0.15227
841.44307,0.17585
839.95329,0.19896
838.46350,0.21592
836.97371,0.21980
835.48392,0.21149
833.99413,0.20320
832.50434,0.18938
831.01455,0.21091
829.52477,0.17910
828.03498,0.17795
826.54519,0.16571
825.05540,0.15349
823.56561,0.12450
822.07582,0.11802
820.58604,0.10242
819.09625,0.09759
817.60646,0.09279
816.11667,0.07627
814.62688,0.09907
813.13709,0.09496
811.64730,0.08667
810.15752,0.08570
808.66773,0.08475
807.17794,0.07704
805.68815,0.10814
804.19836,0.09503
802.70857,0.09765
801.21879,0.10028
799.72900,0.09492
798.23921,0.09748
796.74942,0.09958
795.25963,0.09305
793.76984,0.08655
792.28006,0.11268
790.79027,0.13044
789.30048,0.14205
787.81069,0.16875
786.32090,0.18461
784.83111,0.20049
783.34132,0.23196
781.85154,0.22665
780.36175,0.28461
778.87196,0.29948
777.38217,0.31437
775.89238,0.33955
774.40259,0.35882
772.91281,0.34822
771.42302,0.34135
769.93323,0.33451
768.44344,0.29310
766.95365,0.27544
765.46386,0.25583
763.97407,0.19276
762.48429,0.17245
760.99450,0.15217
759.50471,0.11462
758.01492,0.10255
756.52513,0.07518
755.03534,0.08279
753.54556,0.09043
752.05577,0.07252
750.56598,0.06131
749.07619,0.05185
747.58640,0.04637
746.09661,0.04092
744.60683,0.01721
743.11704,0.00884
741.62725,0.00593
740.13746,0.00960
738.64767,0.01329
737.15788,0.01070
735.66809,0.00962
734.17831,0.01524
732.68852,0.03015
731.19873,0.04508
729.70894,0.03051
728.21915,0.02906
726.72936,0.00393
725.23958,0.02277
723.74979,0.02126
722.26000,0.01977
720.77021,0.01867
719.28042,0.02749
717.79063,0.03188
716.30084,0.02629
714.81106,0.02073
713.32127,0.00000
711.83148,0.02734
710.34169,0.03346
708.85190,0.03898
707.36211,0.04453
705.87233,0.03788
704.38254,0.01717
702.89275,0.04268
701.40296,0.05031
699.91317,0.05796
698.42338,0.08280
696.93360,0.08890
695.44381,0.13010
693.95402,0.13958
692.46423,0.14909
690.97444,0.14565
689.48465,0.13260
687.99486,0.17467
686.50508,0.18551
685.01529,0.19638
683.52550,0.22617
682.03571,0.23943
680.54592,0.27570
679.05613,0.27382
677.56635,0.27196
676.07656,0.28557
674.58677,0.27352
673.09698,0.24987
671.60719,0.23663
670.11740,0.22341
668.62761,0.17662
667.13783,0.17210
665.64804,0.15254
664.15825,0.13299
662.66846,0.10854
661.17867,0.08682
659.68888,0.07329
658.19910,0.06645
656.70931,0.05963
655.21952,0.07137
653.72973,0.05447
652.23994,0.08059
650.75015,0.05881
649.26037,0.03705
647.77058,0.03483
646.28079,0.04326
644.79100,0.04998
643.30121,0.04191
641.81142,0.03386
640.32163,0.03943
638.83185,0.04156
637.34206,0.03284
635.85227,0.02984
634.36248,0.02686
632.87269,0.02835
631.38290,0.02838
629.89312,0.01016
628.40333,0.00703
626.91354,0.00393
625.42375,0.02775
623.93396,0.04369
622.44417,0.04471
620.95438,0.04576
619.46460,0.05881
617.97481,0.06892
616.48502,0.07980
614.99523,0.10442
613.50544,0.12906
612.01565,0.13482
610.52587,0.16433
609.03608,0.20029
607.54629,0.22528
606.05650,0.25029
604.56671,0.30510
603.07692,0.30978
601.58714,0.31560
600.09735,0.32144
598.60756,0.36597
597.11777,0.38459
595.62798,0.41707
594.13819,0.40670
592.64840,0.39637
591.15862,0.37061
589.66883,0.33649
588.17904,0.32314
586.68925,0.27979
585.19946,0.23648
583.70967,0.18911
582.21989,0.15091
580.73010,0.13212
579.24031,0.11337
577.75052,0.11724
576.26073,0.07889
574.77094,0.07120
573.28115,0.07453
571.79137,0.07788
570.30158,0.08336
568.81179,0.10987
567.32200,0.10897
565.83221,0.10810
564.34242,0.12653
562.85264,0.15140
561.36285,0.16123
559.87306,0.15367
558.38327,0.14613
556.89348,0.15011
555.40369,0.17214
553.91391,0.16975
552.42412,0.16737
550.93433,0.16651
549.44454,0.18568
547.95475,0.19376
546.46496,0.19321
544.97517,0.19270
543.48539,0.23914
541.99560,0.27129
540.50581,0.29098
539.01602,0.31069
537.52623,0.35205
536.03644,0.38775
534.54666,0.42694
533.05687,0.44713
531.56708,0.46734
530.07729,0.50833
528.58750,0.54020
527.09771,0.56827
525.60792,0.59637
524.11814,0.66661
522.62835,0.73490
521.13856,0.79506
519.64877,0.82721
518.15898,0.85938
516.66919,0.89417
515.17941,0.88996
513.68962,0.89836
512.19983,0.90680
510.71004,0.85571
509.22025,0.81997
507.73046,0.67877
506.24068,0.62665
504.75089,0.57456
503.26110,0.48457
501.77131,0.40572
500.28152,0.35951
498.79173,0.31332
497.30194,0.22170
495.81216,0.15802
494.32237,0.14489
492.83258,0.13178
491.34279,0.10573
489.85300,0.11503
488.36321,0.10830
486.87343,0.10234
485.38364,0.09640
483.89385,0.07442
482.40406,0.08830
480.91427,0.10133
479.42448,0.11439
477.93469,0.13798
476.44491,0.15763
474.95512,0.16435
473.46533,0.17108
471.97554,0.20910
470.48575,0.19204
468.99596,0.16661
467.50618,0.15912
466.01639,0.15165
464.52660,0.14483
463.03681,0.12123
461.54702,0.10729
460.05723,0.09338
458.56745,0.07899
457.07766,0.07971
455.58787,0.06179
454.09808,0.04390
452.60829,0.00393
451.11850,0.04729
449.62871,0.03595
448.13893,0.02465
446.64914,0.03251
445.15935,0.05324
443.66956,0.07326
442.17977,0.06872
440.68998,0.06421
439.20020,0.05244
437.71041,0.06490
436.22062,0.06799
434.73083,0.07112
433.24104,0.09279
431.75125,0.05026
430.26146,0.05815
428.77168,0.06607
427.28189,0.04906
425.79210,0.08074
424.30231,0.08330
422.81252,0.08588
421.32273,0.05810
419.83295,0.05801
418.34316,0.05313
416.85337,0.04828
415.36358,0.03024
413.87379,0.04359
412.38400,0.04388
410.89422,0.04419
409.40443,0.05292
407.91464,0.05082
406.42485,0.06084
404.93506,0.06174
403.44527,0.06267
401.95548,0.05301
400.46570,0.04114
398.97591,0.03683
397.48612,0.03255
395.99633,0.04275
394.50654,0.03296
393.01675,0.02665
391.52697,0.02037
390.03718,0.00918
388.54739,0.03784
387.05760,0.02280
385.56781,0.00779
384.07802,0.03529
382.58824,0.03738
381.09845,0.03195
379.60866,0.02655
378.11887,0.02821
376.62908,0.01656
375.13929,0.00839
373.64950,0.00025
372.15972,0.03408
370.66993,0.01679
369.18014,0.02549
367.69035,0.03421
366.20056,0.04556
364.71077,0.03938
363.22099,0.03188
361.73120,0.02439
360.24141,0.01064
358.75162,0.01025
357.26183,0.02952
355.77204,0.04882
354.28225,0.07988
352.79247,0.07514
351.30268,0.08229
349.81289,0.08946
348.32310,0.07862
346.83331,0.06163
345.34352,0.05664
343.85374,0.05169
342.36395,0.06071
340.87416,0.05840
339.38437,0.04549
337.89458,0.03260
336.40479,0.03876
334.91501,0.06323
333.42522,0.05486
331.93543,0.04652
330.44564,0.02981
328.95585,0.03980
327.46606,0.03969
325.97627,0.03960
324.48649,0.03484
322.99670,0.02492
321.50691,0.01441
320.01712,0.00393
318.52733,0.04238
317.03754,0.07295
315.54776,0.10874
314.05797,0.14455
312.56818,0.15692
311.07839,0.08334
309.58860,0.06969
308.09881,0.05607
306.60902,0.05569
305.11924,0.06176
303.62945,0.03462
302.13966,0.00751
300.64987,0.01336
299.16008,0.00393
