1778.52000,0.01684
1777.03021,0.00147
1775.54042,0.00877
1774.05063,0.01949
1772.56085,0.02825
1771.07106,0.03307
1769.58127,0.03764
1768.09148,0.03629
1766.60169,0.03071
1765.11190,0.02403
1763.62212,0.02191
1762.13233,0.03027
1760.64254,0.03668
1759.15275,0.03746
1757.66296,0.03005
1756.17317,0.01927
1754.68339,0.02380
1753.19360,0.02185
1751.70381,0.02784
1750.21402,0.03272
1748.72423,0.02999
1747.23444,0.02530
1745.74465,0.03422
1744.25487,0.04571
1742.76508,0.02242
1741.27529,0.01783
1739.78550,0.02323
1738.29571,0.03857
1736.80592,0.03694
1735.31614,0.03336
1733.82635,0.03632
1732.33656,0.01524
1730.84677,0.01146
1729.35698,0.01052
1727.86719,0.02243
1726.37740,0.03097
1724.88762,0.02058
1723.39783,0.02691
1721.90804,0.02732
1720.41825,0.02492
1718.92846,0.01547
1717.43867,0.02529
1715.94889,0.03203
1714.45910,0.03963
1712.96931,0.02887
1711.47952,0.02747
1709.98973,0.00147
1708.49994,0.02376
1707.01016,0.01510
1705.52037,0.00645
1704.03058,0.01835
1702.54079,0.03791
1701.05100,0.02693
1699.56121,0.02560
1698.07142,0.02345
1696.58164,0.01934
1695.09185,0.04270
1693.60206,0.02845
1692.11227,0.02979
1690.62248,0.03540
1689.13269,0.04047
1687.64291,0.03735
1686.15312,0.03398
1684.66333,0.02214
1683.17354,0.03183
1681.68375,0.03674
1680.19396,0.02611
1678.70417,0.03106
1677.21439,0.03661
1675.72460,0.03086
1674.23481,0.03645
1672.74502,0.03472
1671.25523,0.05168
1669.76544,0.05876
1668.27566,0.05682
1666.78587,0.04782
1665.29608,0.04054
1663.80629,0.04490
1662.31650,0.06795
1660.82671,0.06471
1659.33693,0.07593
1657.84714,0.06283
1656.35735,0.05316
1654.86756,0.06162
1653.37777,0.06048
1651.88798,0.07154
1650.39819,0.06564
1648.90841,0.05609
1647.41862,0.06495
1645.92883,0.06097
1644.43904,0.05701
1642.94925,0.06425
1641.45946,0.06387
1639.96968,0.06805
1638.47989,0.06094
1636.99010,0.05781
1635.50031,0.06687
1634.01052,0.06718
1632.52073,0.07176
1631.03094,0.08713
1629.54116,0.09006
1628.05137,0.08510
1626.56158,0.07535
1625.07179,0.05826
1623.58200,0.03639
1622.09221,0.04822
1620.60243,0.04593
1619.11264,0.04988
1617.62285,0.06886
1616.13306,0.07654
1614.64327,0.08595
1613.15348,0.08717
1611.66370,0.07823
1610.17391,0.08601
1608.68412,0.08589
1607.19433,0.09089
1605.70454,0.08290
1604.21475,0.07069
1602.72496,0.05850
1601.23518,0.06388
1599.74539,0.07410
1598.25560,0.08689
1596.76581,0.08357
1595.27602,0.07716
1593.78623,0.08521
1592.29645,0.07263
1590.80666,0.07507
1589.31687,0.05320
1587.82708,0.05993
1586.33729,0.06810
1584.84750,0.10460
1583.35771,0.08537
1581.86793,0.07806
1580.37814,0.07840
1578.88835,0.06802
1577.39856,0.04833
1575.90877,0.06460
1574.41898,0.06730
1572.92920,0.05787
1571.43941,0.05384
1569.94962,0.04516
1568.45983,0.03651
1566.97004,0.03142
1565.48025,0.02833
1563.99047,0.03489
1562.50068,0.01855
1561.01089,0.02714
1559.52110,0.02670
1558.03131,0.02402
1556.54152,0.00325
1555.05173,0.01534
1553.56195,0.02235
1552.07216,0.02628
1550.58237,0.01834
1549.09258,0.00477
1547.60279,0.00000
1546.11300,0.01459
1544.62322,0.00147
1543.13343,0.01741
1541.64364,0.01441
1540.15385,0.01314
1538.66406,0.01189
1537.17427,0.01689
1535.68448,0.00663
1534.19470,0.00715
1532.70491,0.00147
1531.21512,0.01150
1529.72533,0.01363
1528.23554,0.01664
1526.74575,0.02731
1525.25597,0.02781
1523.76618,0.03485
1522.27639,0.02975
1520.78660,0.02495
1519.29681,0.02556
1517.80702,0.03467
1516.31724,0.04212
1514.82745,0.04959
1513.33766,0.04874
1511.84787,0.04791
1510.35808,0.05941
1508.86829,0.05651
1507.37850,0.04429
1505.88872,0.04257
1504.39893,0.05531
1502.90914,0.03863
1501.41935,0.05425
1499.92956,0.05602
1498.43977,0.05725
1496.94999,0.06388
1495.46020,0.08327
1493.97041,0.09024
1492.48062,0.10373
1490.99083,0.10084
1489.50104,0.13023
1488.01125,0.11862
1486.52147,0.10703
1485.03168,0.12178
1483.54189,0.13316
1482.05210,0.14004
1480.56231,0.16646
1479.07252,0.16377
1477.58274,0.17695
1476.09295,0.18930
1474.60316,0.18017
1473.11337,0.20615
1471.62358,0.20188
1470.13379,0.21150
1468.64401,0.21209
1467.15422,0.23421
1465.66443,0.24730
1464.17464,0.26041
1462.68485,0.29109
1461.19506,0.33284
1459.70527,0.39017
1458.21549,0.39942
1456.72570,0.46868
1455.23591,0.52694
1453.74612,0.56880
1452.25633,0.60673
1450.76654,0.62205
1449.27676,0.67361
1447.78697,0.68133
1446.29718,0.63814
1444.80739,0.63615
1443.31760,0.63419
1441.82781,0.57494
1440.33802,0.49705
1438.84824,0.49020
1437.35845,0.48310
1435.86866,0.47574
1434.37887,0.48114
1432.88908,0.51259
1431.39929,0.53304
1429.90951,0.59001
1428.41972,0.66738
1426.92993,0.74817
1425.44014,0.82701
1423.95035,0.83810
1422.46056,0.84921
1420.97078,0.90746
1419.48099,0.92640
1417.99120,0.92414
1416.50141,0.90295
1415.01162,0.86368
1413.52183,0.80829
1412.03204,0.78350
1410.54226,0.71628
1409.05247,0.64937
1407.56268,0.60031
1406.07289,0.55806
1404.58310,0.52249
1403.09331,0.48695
1401.60353,0.44167
1400.11374,0.36868
1398.62395,0.36447
1397.13416,0.31106
1395.64437,0.25880
1394.15458,0.21364
1392.66479,0.21265
1391.17501,0.15990
1389.68522,0.12556
1388.19543,0.08531
1386.70564,0.07961
1385.21585,0.07393
1383.72606,0.05526
1382.23628,0.04623
1380.74649,0.03016
1379.25670,0.01920
1377.76691,0.02383
1376.27712,0.01603
1374.78733,0.00147
1373.29755,0.02351
1371.80776,0.00992
1370.31797,0.02635
1368.82818,0.03276
1367.33839,0.03920
1365.84860,0.03561
1364.35881,0.04337
1362.86903,0.04889
1361.37924,0.07282
1359.88945,0.09480
1358.39966,0.11482
1356.90987,0.13317
1355.42008,0.18550
1353.93030,0.24211
1352.44051,0.27652
1350.95072,0.31095
1349.46093,0.38885
1347.97114,0.44244
1346.48135,0.52661
1344.99156,0.58279
1343.50178,0.64013
1342.01199,0.67740
1340.52220,0.72234
1339.03241,0.79248
1337.54262,0.85445
1336.05283,0.88913
1334.56305,0.92383
1333.07326,0.93776
1331.58347,0.93615
1330.09368,0.92919
1328.60389,0.89424
1327.11410,0.89044
1325.62432,0.86233
1324.13453,0.82265
1322.64474,0.78581
1321.15495,0.72552
1319.66516,0.70741
1318.17537,0.68932
1316.68558,0.63391
1315.19580,0.60682
1313.70601,0.54806
1312.21622,0.51791
1310.72643,0.47137
1309.23664,0.44098
1307.74685,0.43778
1306.25707,0.36839
1304.76728,0.34883
1303.27749,0.32930
1301.78770,0.30979
1300.29791,0.26540
1298.80812,0.24424
1297.31834,0.19593
1295.82855,0.15388
1294.33876,0.14015
1292.84897,0.12475
1291.35918,0.11050
1289.86939,0.11411
1288.37960,0.11774
1286.88982,0.08262
1285.40003,0.09423
1283.91024,0.12057
1282.42045,0.07138
1280.93066,0.06579
1279.44087,0.05118
1277.95109,0.03970
1276.46130,0.04353
1274.97151,0.04426
1273.48172,0.04503
1271.99193,0.02600
1270.50214,0.02851
1269.01235,0.02482
1267.52257,0.03445
1266.03278,0.01327
1264.54299,0.00427
1263.05320,0.01370
1261.56341,0.02102
1260.07362,0.02837
1258.58384,0.03532
1257.09405,0.01287
1255.60426,0.00147
1254.11447,0.00516
1252.62468,0.01652
1251.13489,0.01431
1249.64511,0.00336
1248.15532,0.01281
1246.66553,0.01917
1245.17574,0.02556
1243.68595,0.03395
1242.19616,0.03047
1240.70637,0.00043
1239.21659,0.01200
1237.72680,0.01625
1236.23701,0.02221
1234.74722,0.02141
1233.25743,0.01596
1231.76764,0.01054
1230.27786,0.02934
1228.78807,0.00147
1227.29828,0.03753
1225.80849,0.01673
1224.31870,0.00699
1222.82891,0.02642
1221.33912,0.03796
1219.84934,0.03848
1218.35955,0.03903
1216.86976,0.04978
1215.37997,0.05576
1213.89018,0.06034
1212.40039,0.06891
1210.91061,0.06760
1209.42082,0.06037
1207.93103,0.06109
1206.44124,0.06183
1204.95145,0.04024
1203.46166,0.03226
1201.97188,0.02827
1200.48209,0.02345
1198.99230,0.03478
1197.50251,0.03737
1196.01272,0.03772
1194.52293,0.04885
1193.03314,0.06000
1191.54336,0.02901
1190.05357,0.02946
1188.56378,0.01380
1187.07399,0.02222
1185.58420,0.03377
1184.09441,0.05469
1182.60463,0.04649
1181.11484,0.03831
1179.62505,0.03751
1178.13526,0.02712
1176.64547,0.00147
1175.15568,0.04128
1173.66589,0.05452
1172.17611,0.05759
1170.68632,0.06536
1169.19653,0.07315
1167.70674,0.08309
1166.21695,0.07324
1164.72716,0.07672
1163.23738,0.05758
1161.74759,0.07583
1160.25780,0.10570
1158.76801,0.11041
1157.27822,0.11514
1155.78843,0.10773
1154.29865,0.10317
1152.80886,0.09892
1151.31907,0.11196
1149.82928,0.14483
1148.33949,0.13839
1146.84970,0.13877
1145.35991,0.13917
1143.87013,0.13960
1142.38034,0.15872
1140.89055,0.18014
1139.40076,0.20469
1137.91097,0.18597
1136.42118,0.20124
1134.93140,0.21709
1133.44161,0.23297
1131.95182,0.25708
1130.46203,0.26621
1128.97224,0.26971
1127.48245,0.24494
1125.99266,0.22868
1124.50288,0.25688
1123.01309,0.27349
1121.52330,0.29013
1120.03351,0.28444
1118.54372,0.28104
1117.05393,0.26889
1115.56415,0.26525
1114.07436,0.24806
1112.58457,0.23768
1111.09478,0.22733
1109.60499,0.24133
1108.11520,0.26753
1106.62542,0.25952
1105.13563,0.26426
1103.64584,0.24950
1102.15605,0.23448
1100.66626,0.23916
1099.17647,0.24385
1097.68668,0.24787
1096.19690,0.21654
1094.70711,0.21777
1093.21732,0.20658
1091.72753,0.20815
1090.23774,0.21172
1088.74795,0.21532
1087.25817,0.18753
1085.76838,0.19825
1084.27859,0.17645
1082.78880,0.17420
1081.29901,0.19150
1079.80922,0.15761
1078.31943,0.16180
1076.82965,0.16602
1075.33986,0.18625
1073.85007,0.18981
1072.36028,0.19113
1070.87049,0.22841
1069.38070,0.24591
1067.89092,0.25636
1066.40113,0.26683
1064.91134,0.28836
1063.42155,0.36001
1061.93176,0.41866
1060.44197,0.49573
1058.95219,0.57509
1057.46240,0.61698
1055.97261,0.65889
1054.48282,0.76577
1052.99303,0.81297
1051.50324,0.80643
1050.01345,0.84547
1048.52367,0.81973
1047.03388,0.80477
1045.54409,0.78983
1044.05430,0.76955
1042.56451,0.75579
1041.07472,0.68858
1039.58494,0.59791
1038.09515,0.54432
1036.60536,0.52091
1035.11557,0.49751
1033.62578,0.47655
1032.13599,0.40948
1030.64620,0.34640
1029.15642,0.31900
1027.66663,0.27818
1026.17684,0.23739
1024.68705,0.21601
1023.19726,0.19776
1021.70747,0.15888
1020.21769,0.12625
1018.72790,0.11685
1017.23811,0.11583
1015.74832,0.11482
1014.25853,0.10465
1012.76874,0.08855
1011.27896,0.09257
1009.78917,0.07257
1008.29938,0.04127
1006.80959,0.03829
1005.31980,0.03533
1003.83001,0.00977
1002.34022,0.01195
1000.85044,0.00596
999.36065,0.01301
997.87086,0.01315
996.38107,0.01331
994.89128,0.02241
993.40149,0.05107
991.91171,0.05541
990.42192,0.06911
988.93213,0.08623
987.44234,0.09150
985.95255,0.09678
984.46276,0.08795
982.97297,0.08366
981.48319,0.04714
979.99340,0.02678
978.50361,0.02271
977.01382,0.01866
975.52403,0.01280
974.03424,0.00838
972.54446,0.02012
971.05467,0.00867
969.56488,0.00149
968.07509,0.00157
966.58530,0.00167
965.09551,0.00193
963.60573,0.03023
962.11594,0.02036
960.62615,0.02211
959.13636,0.01709
957.64657,0.01210
956.15678,0.00147
954.66699,0.01906
953.17721,0.02535
951.68742,0.04779
950.19763,0.06178
948.70784,0.07578
947.21805,0.07708
945.72826,0.06000
944.23848,0.07974
942.74869,0.09356
941.25890,0.10316
939.76911,0.11435
938.27932,0.12555
936.78953,0.15673
935.29974,0.16643
933.80996,0.21096
932.32017,0.24221
930.83038,0.23487
929.34059,0.22754
927.85080,0.24048
926.36101,0.26815
924.87123,0.29160
923.38144,0.32498
921.89165,0.36306
920.40186,0.40116
918.91207,0.50734
917.42228,0.62996
915.93250,0.75034
914.44271,0.91772
912.95292,1.01975
911.46313,1.12181
909.97334,1.39707
908.48355,1.58945
906.99376,1.72639
905.50398,1.87779
904.01419,1.93016
902.52440,1.98256
901.03461,1.99198
899.54482,2.00000
898.05503,1.86656
896.56525,1.62052
895.07546,1.48033
893.58567,1.34017
892.09588,1.08175
890.60609,0.86608
889.11630,0.66431
887.62651,0.47274
886.13673,0.40416
884.64694,0.33560
883.15715,0.22504
881.66736,0.16488
880.17757,0.12426
878.68778,0.10730
877.19800,0.09037
875.70821,0.06850
874.21842,0.03761
872.72863,0.02230
871.23884,0.01721
869.74905,0.02232
868.25927,0.02747
866.76948,0.01509
865.27969,0.02764
863.78990,0.02578
862.30011,0.02904
860.81032,0.04392
859.32053,0.05883
857.83075,0.05707
856.34096,0.06665
854.85117,0.08362
853.36138,0.11079
851.87159,0.10814
850.38180,0.10551
848.89202,0.14153
847.40223,0.17051
845.91244,0.13583
844.42265,0.16174
842.93286,0.18767
841.44307,0.15590
839.95329,0.19122
838.46350,0.20223
836.97371,0.20874
835.48392,0.21555
833.99413,0.22239
832.50434,0.23349
831.01455,0.20388
829.52477,0.17683
828.03498,0.14754
826.54519,0.15068
825.05540,0.15385
823.56561,0.11615
822.07582,0.12941
820.58604,0.13165
819.09625,0.12402
817.60646,0.11641
816.11667,0.11619
814.62688,0.09844
813.13709,0.09883
811.64730,0.11735
810.15752,0.11043
808.66773,0.10354
807.17794,0.10261
805.68815,0.10991
804.19836,0.11356
802.70857,0.12134
801.21879,0.12914
799.72900,0.10966
798.23921,0.10124
796.74942,0.09822
795.25963,0.09621
793.76984,0.09423
792.28006,0.11279
790.79027,0.11553
789.30048,0.13131
787.81069,0.14824
786.32090,0.16039
784.83111,0.17257
783.34132,0.19665
781.85154,0.23010
780.36175,0.22338
778.87196,0.23919
777.38217,0.25503
775.89238,0.29055
774.40259,0.31167
772.91281,0.31696
771.42302,0.30106
769.93323,0.28518
768.44344,0.24103
766.95365,0.18983
765.46386,0.15931
763.97407,0.13136
762.48429,0.11518
760.99450,0.09902
759.50471,0.09294
758.01492,0.06961
756.52513,0.07999
755.03534,0.06676
753.54556,0.05355
752.05577,0.04165
750.56598,0.03854
749.07619,0.04027
747.58640,0.04088
746.09661,0.04153
744.60683,0.03540
743.11704,0.02223
741.62725,0.02323
740.13746,0.02029
738.64767,0.01738
737.15788,0.00147
735.66809,0.00650
734.17831,0.00901
732.68852,0.01593
731.19873,0.02288
729.70894,0.02235
728.21915,0.01194
726.72936,0.00297
725.23958,0.00889
723.74979,0.00861
722.26000,0.00836
720.77021,0.00983
719.28042,0.00085
717.79063,0.01027
716.30084,0.01476
714.81106,0.01927
713.32127,0.01971
711.83148,0.00885
710.34169,0.00198
708.85190,0.01098
707.36211,0.02000
705.87233,0.01349
704.38254,0.03416
702.89275,0.04439
701.40296,0.04715
699.91317,0.04993
698.42338,0.07778
696.93360,0.07311
695.44381,0.08855
693.95402,0.10091
692.46423,0.11329
690.97444,0.11551
689.48465,0.11153
687.99486,0.13559
686.50508,0.15783
685.01529,0.18010
683.52550,0.19121
682.03571,0.21480
680.54592,0.24351
679.05613,0.25045
677.56635,0.25742
676.07656,0.27545
674.58677,0.25105
673.09698,0.20150
671.60719,0.18890
670.11740,0.17632
668.62761,0.17777
667.13783,0.15973
665.64804,0.13477
664.15825,0.10984
662.66846,0.10347
661.17867,0.08581
659.68888,0.06788
658.19910,0.05663
656.70931,0.04541
655.21952,0.03209
653.72973,0.05756
652.23994,0.05362
650.75015,0.05367
649.26037,0.05375
647.77058,0.04960
646.28079,0.05030
644.79100,0.03460
643.30121,0.03760
641.81142,0.04063
640.32163,0.04764
638.83185,0.02865
637.34206,0.00147
635.85227,0.00096
634.36248,0.00047
632.87269,0.00127
631.38290,0.02899
629.89312,0.00693
628.40333,0.01262
626.91354,0.01833
625.42375,0.02945
623.93396,0.02220
622.44417,0.03011
620.95438,0.03805
619.46460,0.03653
617.97481,0.03900
616.48502,0.03640
614.99523,0.06169
613.50544,0.08702
612.01565,0.13005
610.52587,0.18018
609.03608,0.18845
607.54629,0.19817
606.05650,0.20791
604.56671,0.25021
603.07692,0.26594
601.58714,0.27844
600.09735,0.29097
598.60756,0.32856
597.11777,0.35684
595.62798,0.34185
594.13819,0.33508
592.64840,0.32835
591.15862,0.29051
589.66883,0.24420
588.17904,0.24942
586.68925,0.23854
585.19946,0.22768
583.70967,0.16987
582.21989,0.11350
580.73010,0.08899
579.24031,0.06451
577.75052,0.04953
576.26073,0.04051
574.77094,0.02615
573.28115,0.02044
571.79137,0.01475
570.30158,0.03696
568.81179,0.03826
567.32200,0.04142
565.83221,0.04460
564.34242,0.08502
562.85264,0.09038
561.36285,0.11104
559.87306,0.12111
558.38327,0.13121
556.89348,0.12365
555.40369,0.12743
553.91391,0.12501
552.42412,0.12261
550.93433,0.14571
549.44454,0.12553
547.95475,0.13198
546.46496,0.12020
544.97517,0.10845
543.48539,0.16081
541.99560,0.17896
540.50581,0.20464
539.01602,0.23033
537.52623,0.27770
536.03644,0.30048
534.54666,0.34054
533.05687,0.36860
531.56708,0.39668
530.07729,0.43880
528.58750,0.51009
527.09771,0.53683
525.60792,0.56360
524.11814,0.61147
522.62835,0.67295
521.13856,0.73983
519.64877,0.76783
518.15898,0.79585
516.66919,0.83706
515.17941,0.86414
513.68962,0.86012
512.19983,0.85612
510.71004,0.82413
509.22025,0.73868
507.73046,0.66458
506.24068,0.61243
504.75089,0.56031
503.26110,0.45317
501.77131,0.35058
500.28152,0.30263
498.79173,0.25471
497.30194,0.20823
495.81216,0.19573
494.32237,0.17009
492.83258,0.14448
491.34279,0.12045
489.85300,0.07267
488.36321,0.05237
486.87343,0.05587
485.38364,0.05938
483.89385,0.09575
482.40406,0.09535
480.91427,0.10163
479.42448,0.10794
477.93469,0.11667
476.44491,0.12797
474.95512,0.14949
473.46533,0.17103
471.97554,0.13713
470.48575,0.12646
468.99596,0.13959
467.50618,0.14099
466.01639,0.14243
464.52660,0.12421
463.03681,0.10659
461.54702,0.09225
460.05723,0.07793
458.56745,0.08217
457.07766,0.07314
455.58787,0.05267
454.09808,0.03222
452.60829,0.00147
451.11850,0.01600
449.62871,0.01046
448.13893,0.00495
446.64914,0.00116
445.15935,0.02428
443.66956,0.02846
442.17977,0.03832
440.68998,0.04821
439.20020,0.02304
437.71041,0.03666
436.22062,0.03587
434.73083,0.03510
433.24104,0.05530
431.75125,0.05034
430.26146,0.06408
428.77168,0.07785
427.28189,0.04551
425.79210,0.03131
424.30231,0.02180
422.81252,0.01232
421.32273,0.04434
419.83295,0.06507
418.34316,0.05923
416.85337,0.05340
415.36358,0.01789
413.87379,0.05008
412.38400,0.05046
410.89422,0.05086
409.40443,0.04888
407.91464,0.03900
406.42485,0.04499
404.93506,0.04379
403.44527,0.04262
401.95548,0.04869
400.46570,0.02789
398.97591,0.04264
397.48612,0.05741
395.99633,0.04773
394.50654,0.05477
393.01675,0.04697
391.52697,0.03920
390.03718,0.04671
388.54739,0.03557
387.05760,0.03308
385.56781,0.03061
384.07802,0.03709
382.58824,0.02802
381.09845,0.01473
379.60866,0.00147
378.11887,0.00347
376.62908,0.02644
375.13929,0.02806
373.64950,0.02971
372.15972,0.04284
370.66993,0.04327
369.18014,0.04306
367.69035,0.04288
366.20056,0.03282
364.71077,0.06466
363.22099,0.03357
361.73120,0.00250
360.24141,0.01659
358.75162,0.00835
357.26183,0.00566
355.77204,0.00298
354.28225,0.02821
352.79247,0.06393
351.30268,0.07873
349.81289,0.09356
348.32310,0.10700
346.83331,0.06980
345.34352,0.06589
343.85374,0.06200
342.36395,0.05289
340.87416,0.02005
339.38437,0.01503
337.89458,0.01004
336.40479,0.02997
334.91501,0.04766
333.42522,0.04642
331.93543,0.04521
330.44564,0.02647
328.95585,0.03379
327.46606,0.05699
325.97627,0.08020
324.48649,0.05789
322.99670,0.03163
321.50691,0.03101
320.01712,0.03042
318.52733,0.06083
317.03754,0.06778
315.54776,0.08693
314.05797,0.10610
312.56818,0.15217
311.07839,0.13715
309.58860,0.11777
308.09881,0.09841
306.60902,0.09676
305.11924,0.06684
303.62945,0.03454
302.13966,0.00226
300.64987,0.01204
299.16008,0.00147
