1778.52000,0.00383
1777.03021,0.00000
1775.54042,0.01255
1774.05063,0.00513
1772.56085,0.01020
1771.07106,0.01893
1769.58127,0.01288
1768.09148,0.00738
1766.60169,0.00709
1765.11190,0.01800
1763.62212,0.00400
1762.13233,0.01495
1760.64254,0.01503
1759.15275,0.02499
1757.66296,0.02044
1756.17317,0.00604
1754.68339,0.01608
1753.19360,0.01082
1751.70381,0.00221
1750.21402,0.01920
1748.72423,0.01285
1747.23444,0.01172
1745.74465,0.01450
1744.25487,0.01549
1742.76508,0.02352
1741.27529,0.01495
1739.78550,0.01004
1738.29571,0.01633
1736.80592,0.02445
1735.31614,0.01053
1733.82635,0.01403
1732.33656,0.00873
1730.84677,0.01669
1729.35698,0.00754
1727.86719,0.01789
1726.37740,0.02333
1724.88762,0.01763
1723.39783,0.01325
1721.90804,0.00448
1720.41825,0.01321
1718.92846,0.01261
1717.43867,0.01386
1715.94889,0.01617
1714.45910,0.01435
1712.96931,0.01411
1711.47952,0.01338
1709.98973,0.02124
1708.49994,0.02679
1707.01016,0.02106
1705.52037,0.01536
1704.03058,0.01034
1702.54079,0.01313
1701.05100,0.00400
1699.56121,0.00545
1698.07142,0.02639
1696.58164,0.02295
1695.09185,0.02213
1693.60206,0.03121
1692.11227,0.02291
1690.62248,0.02528
1689.13269,0.02923
1687.64291,0.02464
1686.15312,0.02786
1684.66333,0.01268
1683.17354,0.02244
1681.68375,0.03353
1680.19396,0.02828
1678.70417,0.03786
1677.21439,0.04019
1675.72460,0.04359
1674.23481,0.04519
1672.74502,0.04136
1671.25523,0.03860
1669.76544,0.05586
1668.27566,0.07132
1666.78587,0.06318
1665.29608,0.07038
1663.80629,0.05995
1662.31650,0.06149
1660.82671,0.08512
1659.33693,0.07659
1657.84714,0.08105
1656.35735,0.08165
1654.86756,0.07397
1653.37777,0.08318
1651.88798,0.06360
1650.39819,0.08221
1648.90841,0.07463
1647.41862,0.07277
1645.92883,0.07991
1644.43904,0.08706
1642.94925,0.07672
1641.45946,0.08197
1639.96968,0.07817
1638.47989,0.09490
1636.99010,0.08855
1635.50031,0.08897
1634.01052,0.09565
1632.52073,0.09093
1631.03094,0.11323
1629.54116,0.10259
1628.05137,0.11456
1626.56158,0.10941
1625.07179,0.09209
1623.58200,0.08570
1622.09221,0.08063
1620.60243,0.08260
1619.11264,0.09575
1617.62285,0.09543
1616.13306,0.09279
1614.64327,0.09148
1613.15348,0.10032
1611.66370,0.10711
1610.17391,0.11522
1608.68412,0.10388
1607.19433,0.09074
1605.70454,0.11477
1604.21475,0.10688
1602.72496,0.09901
1601.23518,0.09584
1599.74539,0.10256
1598.25560,0.09217
1596.76581,0.08570
1595.27602,0.09016
1593.78623,0.10685
1592.29645,0.09942
1590.80666,0.10083
1589.31687,0.08047
1587.82708,0.08972
1586.33729,0.08654
1584.84750,0.08831
1583.35771,0.10647
1581.86793,0.10206
1580.37814,0.09690
1578.88835,0.08787
1577.39856,0.07029
1575.90877,0.07377
1574.41898,0.06871
1572.92920,0.06990
1571.43941,0.06307
1569.94962,0.06509
1568.45983,0.06714
1566.97004,0.05778
1565.48025,0.03261
1563.99047,0.02538
1562.50068,0.01999
1561.01089,0.03229
1559.52110,0.01371
1558.03131,0.02839
1556.54152,0.02544
1555.05173,0.01342
1553.56195,0.00896
1552.07216,0.01828
1550.58237,0.02322
1549.09258,0.00793
1547.60279,0.01343
1546.11300,0.01091
1544.62322,0.00400
1543.13343,0.01755
1541.64364,0.01841
1540.15385,0.02136
1538.66406,0.02435
1537.17427,0.01593
1535.68448,0.01221
1534.19470,0.00825
1532.70491,0.01942
1531.21512,0.02024
1529.72533,0.02289
1528.23554,0.02895
1526.74575,0.01971
1525.25597,0.01880
1523.76618,0.03480
1522.27639,0.03264
1520.78660,0.03804
1519.29681,0.04061
1517.80702,0.03931
1516.31724,0.03855
1514.82745,0.05053
1513.33766,0.04229
1511.84787,0.03408
1510.35808,0.05133
1508.86829,0.04083
1507.37850,0.05528
1505.88872,0.04768
1504.39893,0.04997
1502.90914,0.05203
1501.41935,0.06346
1499.92956,0.06271
1498.43977,0.06770
1496.94999,0.08647
1495.46020,0.09489
1493.97041,0.08878
1492.48062,0.11256
1490.99083,0.12261
1489.50104,0.14462
1488.01125,0.15173
1486.52147,0.15886
1485.03168,0.17082
1483.54189,0.18852
1482.05210,0.18962
1480.56231,0.21749
1479.07252,0.23682
1477.58274,0.26734
1476.09295,0.25867
1474.60316,0.27262
1473.11337,0.26348
1471.62358,0.28501
1470.13379,0.27489
1468.64401,0.27751
1467.15422,0.29002
1465.66443,0.30944
1464.17464,0.32888
1462.68485,0.35342
1461.19506,0.39407
1459.70527,0.44358
1458.21549,0.52635
1456.72570,0.56578
1455.23591,0.59900
1453.74612,0.65250
1452.25633,0.72888
1450.76654,0.76659
1449.27676,0.76979
1447.78697,0.75042
1446.29718,0.74692
1444.80739,0.72968
1443.31760,0.71247
1441.82781,0.66567
1440.33802,0.57996
1438.84824,0.55009
1437.35845,0.52986
1435.86866,0.52160
1434.37887,0.55205
1432.88908,0.60070
1431.39929,0.64912
1429.90951,0.70431
1428.41972,0.73589
1426.92993,0.80931
1425.44014,0.87600
1423.95035,0.88585
1422.46056,0.89572
1420.97078,0.97469
1419.48099,0.97890
1417.99120,0.98625
1416.50141,1.00713
1415.01162,0.97480
1413.52183,0.94951
1412.03204,0.89464
1410.54226,0.85070
1409.05247,0.74005
1407.56268,0.64942
1406.07289,0.55986
1404.58310,0.55107
1403.09331,0.54230
1401.60353,0.48813
1400.11374,0.40022
1398.62395,0.34713
1397.13416,0.31613
1395.64437,0.25166
1394.15458,0.22643
1392.66479,0.17266
1391.17501,0.17136
1389.68522,0.12828
1388.19543,0.12158
1386.70564,0.11088
1385.21585,0.10021
1383.72606,0.06839
1382.23628,0.04907
1380.74649,0.02795
1379.25670,0.03802
1377.76691,0.03279
1376.27712,0.01927
1374.78733,0.01227
1373.29755,0.00400
1371.80776,0.00775
1370.31797,0.02736
1368.82818,0.02921
1367.33839,0.03108
1365.84860,0.02376
1364.35881,0.03828
1362.86903,0.04503
1361.37924,0.05206
1359.88945,0.06406
1358.39966,0.09685
1356.90987,0.15095
1355.42008,0.19677
1353.93030,0.26807
1352.44051,0.29732
1350.95072,0.32660
1349.46093,0.38187
1347.97114,0.48468
1346.48135,0.57193
1344.99156,0.65220
1343.50178,0.72237
1342.01199,0.76478
1340.52220,0.82409
1339.03241,0.87901
1337.54262,0.92538
1336.05283,0.94971
1334.56305,0.97407
1333.07326,0.99143
1331.58347,0.99532
1330.09368,1.02650
1328.60389,0.99279
1327.11410,0.93236
1325.62432,0.93661
1324.13453,0.91673
1322.64474,0.86624
1321.15495,0.82901
1319.66516,0.80765
1318.17537,0.78632
1316.68558,0.72969
1315.19580,0.68711
1313.70601,0.59860
1312.21622,0.60852
1310.72643,0.55978
1309.23664,0.49939
1307.74685,0.48549
1306.25707,0.41813
1304.76728,0.40182
1303.27749,0.38554
1301.78770,0.32630
1300.29791,0.29202
1298.80812,0.28138
1297.31834,0.25676
1295.82855,0.20930
1294.33876,0.16369
1292.84897,0.13472
1291.35918,0.11071
1289.86939,0.10412
1288.37960,0.09756
1286.88982,0.08505
1285.40003,0.07957
1283.91024,0.09879
1282.42045,0.08531
1280.93066,0.07264
1279.44087,0.07167
1277.95109,0.06398
1276.46130,0.04827
1274.97151,0.04426
1273.48172,0.04028
1271.99193,0.02411
1270.50214,0.02901
1269.01235,0.03471
1267.52257,0.02615
1266.03278,0.03839
1264.54299,0.01197
1263.05320,0.01023
1261.56341,0.01099
1260.07362,0.01177
1258.58384,0.01037
1257.09405,0.00926
1255.60426,0.01777
1254.11447,0.01151
1252.62468,0.01177
1251.13489,0.00400
1249.64511,0.00660
1248.15532,0.01182
1246.66553,0.00941
1245.17574,0.00702
1243.68595,0.02400
1242.19616,0.01529
1240.70637,0.01882
1239.21659,0.01354
1237.72680,0.01530
1236.23701,0.02877
1234.74722,0.04356
1233.25743,0.03240
1231.76764,0.02128
1230.27786,0.00940
1228.78807,0.00377
1227.29828,0.00400
1225.80849,0.01526
1224.31870,0.03434
1222.82891,0.02799
1221.33912,0.04971
1219.84934,0.05094
1218.35955,0.05220
1216.86976,0.06439
1215.37997,0.07244
1213.89018,0.06624
1212.40039,0.08214
1210.91061,0.06768
1209.42082,0.07661
1207.93103,0.07064
1206.44124,0.06469
1204.95145,0.06539
1203.46166,0.06819
1201.97188,0.05596
1200.48209,0.06712
1198.99230,0.05779
1197.50251,0.05263
1196.01272,0.05192
1194.52293,0.05318
1193.03314,0.05447
1191.54336,0.05824
1190.05357,0.04802
1188.56378,0.01471
1187.07399,0.02038
1185.58420,0.00400
1184.09441,0.02000
1182.60463,0.02161
1181.11484,0.02325
1179.62505,0.02582
1178.13526,0.02426
1176.64547,0.01857
1175.15568,0.00356
1173.66589,0.02044
1172.17611,0.01399
1170.68632,0.00898
1169.19653,0.00400
1167.70674,0.01364
1166.21695,0.02175
1164.72716,0.02728
1163.23738,0.03985
1161.74759,0.04206
1160.25780,0.06454
1158.76801,0.07043
1157.27822,0.07635
1155.78843,0.08567
1154.29865,0.09890
1152.80886,0.10307
1151.31907,0.09169
1149.82928,0.11227
1148.33949,0.13391
1146.84970,0.14260
1145.35991,0.15131
1143.87013,0.15381
1142.38034,0.13193
1140.89055,0.14642
1139.40076,0.14796
1137.91097,0.17860
1136.42118,0.17733
1134.93140,0.19439
1133.44161,0.21147
1131.95182,0.24092
1130.46203,0.27843
1128.97224,0.24353
1127.48245,0.25643
1125.99266,0.24546
1124.50288,0.21634
1123.01309,0.22841
1121.52330,0.24049
1120.03351,0.24287
1118.54372,0.23878
1117.05393,0.24250
1115.56415,0.24131
1114.07436,0.26767
1112.58457,0.25277
1111.09478,0.23790
1109.60499,0.23395
1108.11520,0.21887
1106.62542,0.22120
1105.13563,0.25472
1103.64584,0.24620
1102.15605,0.25173
1100.66626,0.23520
1099.17647,0.21871
1097.68668,0.20483
1096.19690,0.22941
1094.70711,0.22493
1093.21732,0.21035
1091.72753,0.20488
1090.23774,0.20697
1088.74795,0.20908
1087.25817,0.19511
1085.76838,0.17624
1084.27859,0.18699
1082.78880,0.20426
1081.29901,0.20857
1079.80922,0.22304
1078.31943,0.22934
1076.82965,0.23567
1075.33986,0.25332
1073.85007,0.24477
1072.36028,0.24819
1070.87049,0.26514
1069.38070,0.28549
1067.89092,0.31403
1066.40113,0.34261
1064.91134,0.39133
1063.42155,0.48889
1061.93176,0.60622
1060.44197,0.70305
1058.95219,0.78459
1057.46240,0.82499
1055.97261,0.86542
1054.48282,0.94418
1052.99303,1.03724
1051.50324,1.03295
1050.01345,1.00973
1048.52367,1.01692
1047.03388,1.01803
1045.54409,1.01916
1044.05430,0.96047
1042.56451,0.86571
1041.07472,0.83043
1039.58494,0.75805
1038.09515,0.67063
1036.60536,0.62686
1035.11557,0.58312
1033.62578,0.50356
1032.13599,0.44974
1030.64620,0.37309
1029.15642,0.35048
1027.66663,0.30231
1026.17684,0.25417
1024.68705,0.23604
1023.19726,0.19924
1021.70747,0.19337
1020.21769,0.16415
1018.72790,0.15261
1017.23811,0.14110
1015.74832,0.12961
1014.25853,0.11945
1012.76874,0.09528
1011.27896,0.10412
1009.78917,0.08754
1008.29938,0.09331
1006.80959,0.07833
1005.31980,0.06338
1003.83001,0.04300
1002.34022,0.02109
1000.85044,0.03035
999.36065,0.04640
997.87086,0.06078
996.38107,0.07519
994.89128,0.07391
993.40149,0.11524
991.91171,0.12050
990.42192,0.12371
988.93213,0.12928
987.44234,0.14630
985.95255,0.16335
984.46276,0.17341
982.97297,0.15493
981.48319,0.11466
979.99340,0.08065
978.50361,0.07121
977.01382,0.06178
975.52403,0.07199
974.03424,0.05080
972.54446,0.02678
971.05467,0.02745
969.56488,0.00400
968.07509,0.00859
966.58530,0.01321
965.09551,0.00903
963.60573,0.00513
962.11594,0.01164
960.62615,0.00857
959.13636,0.01630
957.64657,0.02405
956.15678,0.01404
954.66699,0.00224
953.17721,0.02303
951.68742,0.02488
950.19763,0.02573
948.70784,0.02660
947.21805,0.05450
945.72826,0.05152
944.23848,0.08674
942.74869,0.09342
941.25890,0.09285
939.76911,0.09945
938.27932,0.10607
936.78953,0.14401
935.29974,0.15237
933.80996,0.16699
932.32017,0.17124
930.83038,0.19759
929.34059,0.22397
927.85080,0.25867
926.36101,0.29549
924.87123,0.35257
923.38144,0.38528
921.89165,0.39048
920.40186,0.39571
918.91207,0.54768
917.42228,0.71031
915.93250,0.85946
914.44271,1.08083
912.95292,1.18134
911.46313,1.28189
909.97334,1.45139
908.48355,1.65702
906.99376,1.81047
905.50398,1.91592
904.01419,1.93790
902.52440,1.95992
901.03461,2.00000
899.54482,1.94092
898.05503,1.88056
896.56525,1.64834
895.07546,1.51662
893.58567,1.38493
892.09588,1.10942
890.60609,0.86353
889.11630,0.67011
887.62651,0.46712
886.13673,0.40397
884.64694,0.34085
883.15715,0.26282
881.66736,0.18274
880.17757,0.11749
878.68778,0.10328
877.19800,0.08910
875.70821,0.06027
874.21842,0.03458
872.72863,0.02502
871.23884,0.01651
869.74905,0.02388
868.25927,0.03126
866.76948,0.02621
865.27969,0.02741
863.78990,0.03046
862.30011,0.04729
860.81032,0.05610
859.32053,0.06493
857.83075,0.07768
856.34096,0.09799
854.85117,0.10222
853.36138,0.12595
851.87159,0.12426
850.38180,0.12259
848.89202,0.15626
847.40223,0.18243
845.91244,0.19641
844.42265,0.20627
842.93286,0.21615
841.44307,0.22579
839.95329,0.25961
838.46350,0.26853
836.97371,0.27383
835.48392,0.27189
833.99413,0.26997
832.50434,0.29093
831.01455,0.27946
829.52477,0.25710
828.03498,0.23035
826.54519,0.21882
825.05540,0.20732
823.56561,0.18765
822.07582,0.15633
820.58604,0.14191
819.09625,0.14738
817.60646,0.15287
816.11667,0.15125
814.62688,0.14135
813.13709,0.14315
811.64730,0.14238
810.15752,0.15033
808.66773,0.15831
807.17794,0.15813
805.68815,0.15876
804.19836,0.14591
802.70857,0.15242
801.21879,0.15897
799.72900,0.15476
798.23921,0.16252
796.74942,0.14485
795.25963,0.14708
793.76984,0.14933
792.28006,0.15745
790.79027,0.16767
789.30048,0.18077
787.81069,0.24634
786.32090,0.25131
784.83111,0.25631
783.34132,0.30742
781.85154,0.32375
780.36175,0.36608
778.87196,0.37221
777.38217,0.37837
775.89238,0.41402
774.40259,0.44502
772.91281,0.41139
771.42302,0.40155
769.93323,0.39173
768.44344,0.33195
766.95365,0.29504
765.46386,0.23219
763.97407,0.20442
762.48429,0.18824
760.99450,0.17207
759.50471,0.13581
758.01492,0.10658
756.52513,0.10256
755.03534,0.09662
753.54556,0.09070
752.05577,0.08157
750.56598,0.07531
749.07619,0.05272
747.58640,0.05300
746.09661,0.05331
744.60683,0.05417
743.11704,0.05504
741.62725,0.03621
740.13746,0.03233
738.64767,0.02848
737.15788,0.01076
735.66809,0.01565
734.17831,0.01200
732.68852,0.00799
731.19873,0.00400
729.70894,0.00405
728.21915,0.01619
726.72936,0.01382
725.23958,0.02341
723.74979,0.01654
722.26000,0.00969
720.77021,0.02533
719.28042,0.01866
717.79063,0.00527
716.30084,0.00462
714.81106,0.00400
713.32127,0.01621
711.83148,0.02351
710.34169,0.02823
708.85190,0.03649
707.36211,0.04477
705.87233,0.03763
704.38254,0.04635
702.89275,0.06002
701.40296,0.05516
699.91317,0.05032
698.42338,0.06407
696.93360,0.06616
695.44381,0.10203
693.95402,0.10885
692.46423,0.11569
690.97444,0.12411
689.48465,0.16657
687.99486,0.19607
686.50508,0.19379
685.01529,0.19153
683.52550,0.22293
682.03571,0.23902
680.54592,0.22814
679.05613,0.25104
677.56635,0.27396
676.07656,0.28600
674.58677,0.27860
673.09698,0.25200
671.60719,0.23659
670.11740,0.22120
668.62761,0.18066
667.13783,0.16169
665.64804,0.15547
664.15825,0.14927
662.66846,0.12907
661.17867,0.09566
659.68888,0.08123
658.19910,0.07045
656.70931,0.05970
655.21952,0.04015
653.72973,0.06606
652.23994,0.07226
650.75015,0.06667
649.26037,0.06111
647.77058,0.06349
646.28079,0.06304
644.79100,0.05872
643.30121,0.05313
641.81142,0.04755
640.32163,0.04850
638.83185,0.06064
637.34206,0.03125
635.85227,0.03499
634.36248,0.03876
632.87269,0.00400
631.38290,0.02062
629.89312,0.02688
628.40333,0.02199
626.91354,0.01713
625.42375,0.03359
623.93396,0.02956
622.44417,0.03075
620.95438,0.03196
619.46460,0.04669
617.97481,0.07132
616.48502,0.09442
614.99523,0.10832
613.50544,0.12225
612.01565,0.14620
610.52587,0.18212
609.03608,0.22065
607.54629,0.22377
606.05650,0.22692
604.56671,0.28293
603.07692,0.32104
601.58714,0.34101
600.09735,0.36100
598.60756,0.41789
597.11777,0.44234
595.62798,0.42995
594.13819,0.41433
592.64840,0.39874
591.15862,0.37681
589.66883,0.34193
588.17904,0.28292
586.68925,0.25691
585.19946,0.23092
583.70967,0.18679
582.21989,0.16137
580.73010,0.13533
579.24031,0.10932
577.75052,0.09332
576.26073,0.06801
574.77094,0.07335
573.28115,0.06535
571.79137,0.05737
570.30158,0.07708
568.81179,0.08122
567.32200,0.08319
565.83221,0.08517
564.34242,0.13250
562.85264,0.14168
561.36285,0.15348
559.87306,0.16621
558.38327,0.17896
556.89348,0.19811
555.40369,0.18742
553.91391,0.19791
552.42412,0.20843
550.93433,0.24221
549.44454,0.23058
547.95475,0.25973
546.46496,0.26282
544.97517,0.26593
543.48539,0.30191
541.99560,0.29793
540.50581,0.32319
539.01602,0.34847
537.52623,0.39026
536.03644,0.41883
534.54666,0.44587
533.05687,0.46775
531.56708,0.48964
530.07729,0.52221
528.58750,0.59713
527.09771,0.62819
525.60792,0.65927
524.11814,0.69271
522.62835,0.75527
521.13856,0.81914
519.64877,0.82409
518.15898,0.82907
516.66919,0.87199
515.17941,0.90948
513.68962,0.89337
512.19983,0.87728
510.71004,0.83565
509.22025,0.78962
507.73046,0.71116
506.24068,0.65701
504.75089,0.60288
503.26110,0.49930
501.77131,0.42951
500.28152,0.37636
498.79173,0.32324
497.30194,0.24158
495.81216,0.17526
494.32237,0.17076
492.83258,0.16629
491.34279,0.12809
489.85300,0.09952
488.36321,0.08007
486.87343,0.08141
485.38364,0.08277
483.89385,0.10078
482.40406,0.11933
480.91427,0.12908
479.42448,0.13885
477.93469,0.16786
476.44491,0.13848
474.95512,0.15079
473.46533,0.16313
471.97554,0.19769
470.48575,0.21825
468.99596,0.19808
467.50618,0.20298
466.01639,0.20791
464.52660,0.16132
463.03681,0.12618
461.54702,0.10626
460.05723,0.08636
458.56745,0.06739
457.07766,0.03521
455.58787,0.03940
454.09808,0.04362
452.60829,0.04085
451.11850,0.02278
449.62871,0.02201
448.13893,0.02126
446.64914,0.02041
445.15935,0.00400
443.66956,0.03769
442.17977,0.02959
440.68998,0.02153
439.20020,0.02672
437.71041,0.02572
436.22062,0.03577
434.73083,0.04584
433.24104,0.04751
431.75125,0.05361
430.26146,0.04104
428.77168,0.02849
427.28189,0.04687
425.79210,0.05255
424.30231,0.03254
422.81252,0.01257
421.32273,0.03935
419.83295,0.02461
418.34316,0.03262
416.85337,0.04066
415.36358,0.04080
413.87379,0.04174
412.38400,0.03712
410.89422,0.03253
409.40443,0.04289
407.91464,0.04263
406.42485,0.06135
404.93506,0.04673
403.44527,0.03214
401.95548,0.02704
400.46570,0.01237
398.97591,0.02147
397.48612,0.03060
395.99633,0.03989
394.50654,0.03855
393.01675,0.02919
391.52697,0.01986
390.03718,0.01910
388.54739,0.02641
387.05760,0.02673
385.56781,0.02709
384.07802,0.02486
382.58824,0.02604
381.09845,0.02283
379.60866,0.01965
378.11887,0.02635
376.62908,0.00400
375.13929,0.00339
373.64950,0.00258
372.15972,0.02023
370.66993,0.04595
369.18014,0.03911
367.69035,0.03229
366.20056,0.02978
364.71077,0.04755
363.22099,0.05302
361.73120,0.05850
360.24141,0.04596
358.75162,0.05578
357.26183,0.03642
355.77204,0.01707
354.28225,0.02982
352.79247,0.05687
351.30268,0.07045
349.81289,0.08405
348.32310,0.10677
346.83331,0.12509
345.34352,0.12124
343.85374,0.11741
342.36395,0.10257
340.87416,0.06647
339.38437,0.05077
337.89458,0.03509
336.40479,0.01412
334.91501,0.03197
333.42522,0.03452
331.93543,0.03710
330.44564,0.02152
328.95585,0.01973
327.46606,0.03303
325.97627,0.04635
324.48649,0.05709
322.99670,0.05904
321.50691,0.03699
320.01712,0.01496
318.52733,0.03853
317.03754,0.02785
315.54776,0.04433
314.05797,0.06083
312.56818,0.07100
311.07839,0.08586
309.58860,0.08517
308.09881,0.08450
306.60902,0.09944
305.11924,0.08168
303.62945,0.05136
302.13966,0.02106
300.64987,0.00416
299.16008,0.00400
