1778.52000,0.02292
1777.03021,0.00590
1775.54042,0.01242
1774.05063,0.01695
1772.56085,0.01970
1771.07106,0.02568
1769.58127,0.02968
1768.09148,0.01301
1766.60169,0.01324
1765.11190,0.01731
1763.62212,0.01498
1762.13233,0.00503
1760.64254,0.01721
1759.15275,0.01716
1757.66296,0.00949
1756.17317,0.01029
1754.68339,0.00950
1753.19360,0.00693
1751.70381,0.00419
1750.21402,0.01171
1748.72423,0.01404
1747.23444,0.01176
1745.74465,0.00348
1744.25487,0.01130
1742.76508,0.01131
1741.27529,0.00772
1739.78550,0.00577
1738.29571,0.00585
1736.80592,0.01452
1735.31614,0.01216
1733.82635,0.01385
1732.33656,0.01315
1730.84677,0.00845
1729.35698,0.00418
1727.86719,0.01320
1726.37740,0.00696
1724.88762,0.00477
1723.39783,0.00160
1721.90804,0.00529
1720.41825,0.00377
1718.92846,0.00951
1717.43867,0.00503
1715.94889,0.01618
1714.45910,0.01710
1712.96931,0.00940
1711.47952,0.01519
1709.98973,0.01739
1708.49994,0.00554
1707.01016,0.00648
1705.52037,0.00745
1704.03058,0.00673
1702.54079,0.00000
1701.05100,0.01360
1699.56121,0.00471
1698.07142,0.00951
1696.58164,0.00890
1695.09185,0.00632
1693.60206,0.00777
1692.11227,0.00503
1690.62248,0.00679
1689.13269,0.01361
1687.64291,0.01382
1686.15312,0.00561
1684.66333,0.01229
1683.17354,0.01799
1681.68375,0.02091
1680.19396,0.01480
1678.70417,0.01937
1677.21439,0.02517
1675.72460,0.02356
1674.23481,0.02096
1672.74502,0.02985
1671.25523,0.03012
1669.76544,0.02096
1668.27566,0.03856
1666.78587,0.03689
1665.29608,0.04308
1663.80629,0.04386
1662.31650,0.04608
1660.82671,0.06279
1659.33693,0.05581
1657.84714,0.06192
1656.35735,0.06182
1654.86756,0.05291
1653.37777,0.05748
1651.88798,0.05082
1650.39819,0.05403
1648.90841,0.06068
1647.41862,0.06736
1645.92883,0.06702
1644.43904,0.06671
1642.94925,0.06803
1641.45946,0.07219
1639.96968,0.06994
1638.47989,0.08098
1636.99010,0.07476
1635.50031,0.08123
1634.01052,0.07164
1632.52073,0.08337
1631.03094,0.08870
1629.54116,0.09044
1628.05137,0.07491
1626.56158,0.06946
1625.07179,0.06263
1623.58200,0.06084
1622.09221,0.07978
1620.60243,0.08025
1619.11264,0.08034
1617.62285,0.08166
1616.13306,0.09406
1614.64327,0.08478
1613.15348,0.08497
1611.66370,0.09383
1610.17391,0.08160
1608.68412,0.07804
1607.19433,0.09621
1605.70454,0.09451
1604.21475,0.09233
1602.72496,0.09017
1601.23518,0.07527
1599.74539,0.08050
1598.25560,0.09540
1596.76581,0.08359
1595.27602,0.09551
1593.78623,0.10244
1592.29645,0.07302
1590.80666,0.07497
1589.31687,0.08518
1587.82708,0.07432
1586.33729,0.07011
1584.84750,0.08723
1583.35771,0.07684
1581.86793,0.07713
1580.37814,0.06960
1578.88835,0.08641
1577.39856,0.07632
1575.90877,0.06283
1574.41898,0.07188
1572.92920,0.06607
1571.43941,0.06291
1569.94962,0.05424
1568.45983,0.04559
1566.97004,0.04611
1565.48025,0.02536
1563.99047,0.02693
1562.50068,0.03135
1561.01089,0.03216
1559.52110,0.02939
1558.03131,0.03146
1556.54152,0.02150
1555.05173,0.03266
1553.56195,0.03119
1552.07216,0.02130
1550.58237,0.02188
1549.09258,0.01545
1547.60279,0.00503
1546.11300,0.01207
1544.62322,0.01010
1543.13343,0.01398
1541.64364,0.01728
1540.15385,0.01819
1538.66406,0.01912
1537.17427,0.01064
1535.68448,0.00921
1534.19470,0.01126
1532.70491,0.00932
1531.21512,0.00880
1529.72533,0.01556
1528.23554,0.01872
1526.74575,0.02532
1525.25597,0.02632
1523.76618,0.04483
1522.27639,0.04025
1520.78660,0.04052
1519.29681,0.03458
1517.80702,0.03469
1516.31724,0.04990
1514.82745,0.04243
1513.33766,0.04834
1511.84787,0.05427
1510.35808,0.05551
1508.86829,0.05798
1507.37850,0.05946
1505.88872,0.05816
1504.39893,0.04763
1502.90914,0.05823
1501.41935,0.05117
1499.92956,0.07207
1498.43977,0.05742
1496.94999,0.08158
1495.46020,0.08768
1493.97041,0.10686
1492.48062,0.10858
1490.99083,0.11837
1489.50104,0.12617
1488.01125,0.12806
1486.52147,0.12998
1485.03168,0.14428
1483.54189,0.15700
1482.05210,0.17718
1480.56231,0.20381
1479.07252,0.19952
1477.58274,0.20730
1476.09295,0.19783
1474.60316,0.21612
1473.11337,0.23544
1471.62358,0.23267
1470.13379,0.22912
1468.64401,0.24207
1467.15422,0.24440
1465.66443,0.26313
1464.17464,0.28189
1462.68485,0.31061
1461.19506,0.34298
1459.70527,0.38823
1458.21549,0.42427
1456.72570,0.49087
1455.23591,0.53841
1453.74612,0.60184
1452.25633,0.64621
1450.76654,0.67533
1449.27676,0.69804
1447.78697,0.69565
1446.29718,0.68163
1444.80739,0.66442
1443.31760,0.64723
1441.82781,0.61620
1440.33802,0.53937
1438.84824,0.50215
1437.35845,0.49953
1435.86866,0.49150
1434.37887,0.49516
1432.88908,0.54064
1431.39929,0.58212
1429.90951,0.63448
1428.41972,0.70817
1426.92993,0.78650
1425.44014,0.87069
1423.95035,0.88626
1422.46056,0.90186
1420.97078,0.95296
1419.48099,0.94560
1417.99120,0.97021
1416.50141,0.96812
1415.01162,0.93672
1413.52183,0.88644
1412.03204,0.81951
1410.54226,0.75019
1409.05247,0.68531
1407.56268,0.63051
1406.07289,0.56025
1404.58310,0.53615
1403.09331,0.51206
1401.60353,0.47504
1400.11374,0.41312
1398.62395,0.37454
1397.13416,0.33939
1395.64437,0.25624
1394.15458,0.23140
1392.66479,0.20416
1391.17501,0.18258
1389.68522,0.13952
1388.19543,0.10572
1386.70564,0.09818
1385.21585,0.09066
1383.72606,0.06136
1382.23628,0.04454
1380.74649,0.03217
1379.25670,0.01680
1377.76691,0.02337
1376.27712,0.00444
1374.78733,0.00964
1373.29755,0.00503
1371.80776,0.01483
1370.31797,0.01160
1368.82818,0.01853
1367.33839,0.02549
1365.84860,0.02233
1364.35881,0.03165
1362.86903,0.03657
1361.37924,0.05920
1359.88945,0.07804
1358.39966,0.11438
1356.90987,0.14894
1355.42008,0.19217
1353.93030,0.23803
1352.44051,0.26794
1350.95072,0.29787
1349.46093,0.35868
1347.97114,0.43076
1346.48135,0.50025
1344.99156,0.57218
1343.50178,0.66383
1342.01199,0.71089
1340.52220,0.75053
1339.03241,0.80246
1337.54262,0.87190
1336.05283,0.91021
1334.56305,0.94854
1333.07326,0.94188
1331.58347,0.95815
1330.09368,0.91476
1328.60389,0.87762
1327.11410,0.87668
1325.62432,0.89526
1324.13453,0.88553
1322.64474,0.82376
1321.15495,0.77971
1319.66516,0.73046
1318.17537,0.68123
1316.68558,0.64367
1315.19580,0.59992
1313.70601,0.55116
1312.21622,0.51850
1310.72643,0.49552
1309.23664,0.45688
1307.74685,0.42409
1306.25707,0.38651
1304.76728,0.36422
1303.27749,0.34196
1301.78770,0.29520
1300.29791,0.25851
1298.80812,0.22627
1297.31834,0.18220
1295.82855,0.14799
1294.33876,0.13511
1292.84897,0.11462
1291.35918,0.10039
1289.86939,0.09894
1288.37960,0.09751
1286.88982,0.09038
1285.40003,0.08488
1283.91024,0.07840
1282.42045,0.06431
1280.93066,0.05466
1279.44087,0.04905
1277.95109,0.03805
1276.46130,0.03188
1274.97151,0.02695
1273.48172,0.02205
1271.99193,0.02922
1270.50214,0.02597
1269.01235,0.02415
1267.52257,0.02898
1266.03278,0.02017
1264.54299,0.01722
1263.05320,0.01087
1261.56341,0.01238
1260.07362,0.01392
1258.58384,0.02251
1257.09405,0.01726
1255.60426,0.00802
1254.11447,0.00503
1252.62468,0.02086
1251.13489,0.01802
1249.64511,0.01319
1248.15532,0.01623
1246.66553,0.01949
1245.17574,0.02278
1243.68595,0.01865
1242.19616,0.00933
1240.70637,0.01429
1239.21659,0.02189
1237.72680,0.01585
1236.23701,0.01808
1234.74722,0.01470
1233.25743,0.01104
1231.76764,0.00740
1230.27786,0.01856
1228.78807,0.00503
1227.29828,0.01451
1225.80849,0.02763
1224.31870,0.01525
1222.82891,0.02881
1221.33912,0.03316
1219.84934,0.04025
1218.35955,0.04736
1216.86976,0.02947
1215.37997,0.05180
1213.89018,0.04179
1212.40039,0.06397
1210.91061,0.06105
1209.42082,0.05795
1207.93103,0.05779
1206.44124,0.05765
1204.95145,0.05804
1203.46166,0.06388
1201.97188,0.04763
1200.48209,0.05252
1198.99230,0.04717
1197.50251,0.04808
1196.01272,0.04620
1194.52293,0.04465
1193.03314,0.04312
1191.54336,0.03086
1190.05357,0.01561
1188.56378,0.01826
1187.07399,0.03261
1185.58420,0.01964
1184.09441,0.03382
1182.60463,0.03035
1181.11484,0.02690
1179.62505,0.01925
1178.13526,0.00982
1176.64547,0.00503
1175.15568,0.01125
1173.66589,0.00503
1172.17611,0.02367
1170.68632,0.02908
1169.19653,0.03450
1167.70674,0.03835
1166.21695,0.02252
1164.72716,0.03626
1163.23738,0.04379
1161.74759,0.04853
1160.25780,0.07299
1158.76801,0.08160
1157.27822,0.09023
1155.78843,0.09366
1154.29865,0.09230
1152.80886,0.09517
1151.31907,0.10531
1149.82928,0.11526
1148.33949,0.14172
1146.84970,0.13776
1145.35991,0.13382
1143.87013,0.14025
1142.38034,0.14731
1140.89055,0.17007
1139.40076,0.18120
1137.91097,0.19235
1136.42118,0.19911
1134.93140,0.21011
1133.44161,0.22113
1131.95182,0.23097
1130.46203,0.25410
1128.97224,0.23926
1127.48245,0.23712
1125.99266,0.21691
1124.50288,0.23812
1123.01309,0.25031
1121.52330,0.26253
1120.03351,0.25608
1118.54372,0.27296
1117.05393,0.24466
1115.56415,0.25094
1114.07436,0.23574
1112.58457,0.22931
1111.09478,0.22290
1109.60499,0.21762
1108.11520,0.23809
1106.62542,0.23166
1105.13563,0.22645
1103.64584,0.20840
1102.15605,0.21811
1100.66626,0.21670
1099.17647,0.21530
1097.68668,0.21142
1096.19690,0.20575
1094.70711,0.19669
1093.21732,0.18203
1091.72753,0.18286
1090.23774,0.18854
1088.74795,0.19425
1087.25817,0.17244
1085.76838,0.18020
1084.27859,0.17493
1082.78880,0.18213
1081.29901,0.17449
1079.80922,0.18516
1078.31943,0.17667
1076.82965,0.16819
1075.33986,0.20044
1073.85007,0.17965
1072.36028,0.18984
1070.87049,0.20708
1069.38070,0.23058
1067.89092,0.25240
1066.40113,0.27423
1064.91134,0.32252
1063.42155,0.38551
1061.93176,0.45173
1060.44197,0.52662
1058.95219,0.59852
1057.46240,0.63597
1055.97261,0.67345
1054.48282,0.77497
1052.99303,0.83108
1051.50324,0.85085
1050.01345,0.84853
1048.52367,0.84905
1047.03388,0.84507
1045.54409,0.84111
1044.05430,0.78643
1042.56451,0.76253
1041.07472,0.71634
1039.58494,0.61792
1038.09515,0.55831
1036.60536,0.53119
1035.11557,0.50408
1033.62578,0.47007
1032.13599,0.41679
1030.64620,0.35931
1029.15642,0.29522
1027.66663,0.26302
1026.17684,0.23083
1024.68705,0.21103
1023.19726,0.19427
1021.70747,0.15763
1020.21769,0.14091
1018.72790,0.12844
1017.23811,0.12212
1015.74832,0.11583
1014.25853,0.09760
1012.76874,0.08201
1011.27896,0.08212
1009.78917,0.06275
1008.29938,0.03457
1006.80959,0.03143
1005.31980,0.02832
1003.83001,0.01830
1002.34022,0.02236
1000.85044,0.02264
999.36065,0.02092
997.87086,0.02506
996.38107,0.02923
994.89128,0.03904
993.40149,0.05009
991.91171,0.07221
990.42192,0.08692
988.93213,0.09803
987.44234,0.09731
985.95255,0.09662
984.46276,0.09796
982.97297,0.08887
981.48319,0.06915
979.99340,0.05469
978.50361,0.05310
977.01382,0.05155
975.52403,0.03755
974.03424,0.02760
972.54446,0.01145
971.05467,0.02124
969.56488,0.01116
968.07509,0.00834
966.58530,0.00554
965.09551,0.01806
963.60573,0.00789
962.11594,0.03090
960.62615,0.02078
959.13636,0.01289
957.64657,0.00503
956.15678,0.01335
954.66699,0.02129
953.17721,0.03449
951.68742,0.03786
950.19763,0.05079
948.70784,0.06376
947.21805,0.07162
945.72826,0.06986
944.23848,0.08581
942.74869,0.09876
941.25890,0.12119
939.76911,0.12244
938.27932,0.12371
936.78953,0.16048
935.29974,0.17295
933.80996,0.19489
932.32017,0.22148
930.83038,0.23061
929.34059,0.23976
927.85080,0.25235
926.36101,0.26919
924.87123,0.30775
923.38144,0.33066
921.89165,0.36686
920.40186,0.40309
918.91207,0.49681
917.42228,0.62895
915.93250,0.75186
914.44271,0.93992
912.95292,1.05424
911.46313,1.16858
909.97334,1.37580
908.48355,1.61057
906.99376,1.77201
905.50398,1.86595
904.01419,1.91420
902.52440,1.96246
901.03461,2.00000
899.54482,1.98692
898.05503,1.84242
896.56525,1.65695
895.07546,1.51954
893.58567,1.38215
892.09588,1.12540
890.60609,0.87672
889.11630,0.67750
887.62651,0.48555
886.13673,0.41118
884.64694,0.33684
883.15715,0.24985
881.66736,0.16852
880.17757,0.11254
878.68778,0.09848
877.19800,0.08445
875.70821,0.06311
874.21842,0.02711
872.72863,0.03536
871.23884,0.01790
869.74905,0.01474
868.25927,0.01160
866.76948,0.00607
865.27969,0.04378
863.78990,0.03167
862.30011,0.04370
860.81032,0.04620
859.32053,0.04874
857.83075,0.05501
856.34096,0.05829
854.85117,0.09475
853.36138,0.09668
851.87159,0.10033
850.38180,0.10401
848.89202,0.13052
847.40223,0.15364
845.91244,0.15367
844.42265,0.16227
842.93286,0.17089
841.44307,0.17983
839.95329,0.19865
838.46350,0.19719
836.97371,0.22731
835.48392,0.22419
833.99413,0.22109
832.50434,0.22295
831.01455,0.21377
829.52477,0.18653
828.03498,0.17177
826.54519,0.16287
825.05540,0.15399
823.56561,0.13890
822.07582,0.11640
820.58604,0.12829
819.09625,0.12634
817.60646,0.12441
816.11667,0.11305
814.62688,0.09831
813.13709,0.09263
811.64730,0.11371
810.15752,0.11200
808.66773,0.11031
807.17794,0.09669
805.68815,0.11264
804.19836,0.11374
802.70857,0.11958
801.21879,0.12545
799.72900,0.11898
798.23921,0.11435
796.74942,0.11456
795.25963,0.11037
793.76984,0.10621
792.28006,0.11212
790.79027,0.12710
789.30048,0.15135
787.81069,0.16637
786.32090,0.17750
784.83111,0.18866
783.34132,0.23551
781.85154,0.24118
780.36175,0.29190
778.87196,0.30576
777.38217,0.31964
775.89238,0.33928
774.40259,0.34286
772.91281,0.33421
771.42302,0.32287
769.93323,0.31155
768.44344,0.25594
766.95365,0.22427
765.46386,0.19202
763.97407,0.16141
762.48429,0.14026
760.99450,0.11913
759.50471,0.10447
758.01492,0.08279
756.52513,0.07902
755.03534,0.07949
753.54556,0.07999
752.05577,0.05921
750.56598,0.06860
749.07619,0.04947
747.58640,0.04655
746.09661,0.04365
744.60683,0.04007
743.11704,0.01903
741.62725,0.01590
740.13746,0.01631
738.64767,0.01675
737.15788,0.01871
735.66809,0.00503
734.17831,0.00929
732.68852,0.00976
731.19873,0.01025
729.70894,0.01136
728.21915,0.01512
726.72936,0.00503
725.23958,0.00898
723.74979,0.00903
722.26000,0.00911
720.77021,0.01272
719.28042,0.00491
717.79063,0.00958
716.30084,0.01136
714.81106,0.01316
713.32127,0.01248
711.83148,0.00599
710.34169,0.00816
708.85190,0.01076
707.36211,0.01339
705.87233,0.03433
704.38254,0.03278
702.89275,0.03849
701.40296,0.04151
699.91317,0.04456
698.42338,0.06782
696.93360,0.09795
695.44381,0.10137
693.95402,0.10792
692.46423,0.11450
690.97444,0.12523
689.48465,0.15849
687.99486,0.17931
686.50508,0.18407
685.01529,0.18886
683.52550,0.21558
682.03571,0.23630
680.54592,0.23995
679.05613,0.25418
677.56635,0.26844
676.07656,0.27578
674.58677,0.24497
673.09698,0.20473
671.60719,0.20692
670.11740,0.20913
668.62761,0.18384
667.13783,0.16158
665.64804,0.14246
664.15825,0.12337
662.66846,0.08410
661.17867,0.07701
659.68888,0.05869
658.19910,0.04844
656.70931,0.03820
655.21952,0.02598
653.72973,0.03208
652.23994,0.04543
650.75015,0.03770
649.26037,0.03000
647.77058,0.02714
646.28079,0.03798
644.79100,0.03095
643.30121,0.02746
641.81142,0.02400
640.32163,0.02086
638.83185,0.02900
637.34206,0.00701
635.85227,0.00627
634.36248,0.00555
632.87269,0.00503
631.38290,0.00540
629.89312,0.01041
628.40333,0.01585
626.91354,0.02132
625.42375,0.00751
623.93396,0.00961
622.44417,0.01916
620.95438,0.02874
619.46460,0.03895
617.97481,0.03591
616.48502,0.05039
614.99523,0.06388
613.50544,0.07740
612.01565,0.13756
610.52587,0.16901
609.03608,0.18160
607.54629,0.20093
606.05650,0.22030
604.56671,0.27234
603.07692,0.31316
601.58714,0.33098
600.09735,0.34883
598.60756,0.38791
597.11777,0.37898
595.62798,0.39901
594.13819,0.39052
592.64840,0.38207
591.15862,0.34710
589.66883,0.28945
588.17904,0.27021
586.68925,0.24034
585.19946,0.21050
583.70967,0.15294
582.21989,0.13340
580.73010,0.10784
579.24031,0.08232
577.75052,0.06405
576.26073,0.04801
574.77094,0.04044
573.28115,0.03530
571.79137,0.03019
570.30158,0.02269
568.81179,0.04215
567.32200,0.05358
565.83221,0.06505
564.34242,0.09462
562.85264,0.10513
561.36285,0.12651
559.87306,0.14450
558.38327,0.16251
556.89348,0.13653
555.40369,0.13088
553.91391,0.13499
552.42412,0.13913
550.93433,0.15787
549.44454,0.15573
547.95475,0.16165
546.46496,0.17211
544.97517,0.18260
543.48539,0.19603
541.99560,0.22395
540.50581,0.25048
539.01602,0.27705
537.52623,0.31710
536.03644,0.34210
534.54666,0.37416
533.05687,0.39669
531.56708,0.41925
530.07729,0.44877
528.58750,0.55006
527.09771,0.56515
525.60792,0.58027
524.11814,0.66214
522.62835,0.69519
521.13856,0.76323
519.64877,0.78357
518.15898,0.80394
516.66919,0.85196
515.17941,0.84775
513.68962,0.85351
512.19983,0.85929
510.71004,0.79989
509.22025,0.75478
507.73046,0.66989
506.24068,0.61559
504.75089,0.56130
503.26110,0.49036
501.77131,0.38628
500.28152,0.33960
498.79173,0.29294
497.30194,0.21044
495.81216,0.19147
494.32237,0.17372
492.83258,0.15600
491.34279,0.12363
489.85300,0.08184
488.36321,0.07203
486.87343,0.06878
485.38364,0.06555
483.89385,0.10303
482.40406,0.09895
480.91427,0.10282
479.42448,0.10672
477.93469,0.13907
476.44491,0.14412
474.95512,0.15764
473.46533,0.17118
471.97554,0.18534
470.48575,0.14607
468.99596,0.16069
467.50618,0.16980
466.01639,0.17893
464.52660,0.12790
463.03681,0.09176
461.54702,0.09333
460.05723,0.09493
458.56745,0.07996
457.07766,0.04312
455.58787,0.04257
454.09808,0.04205
452.60829,0.03060
451.11850,0.01475
449.62871,0.00988
448.13893,0.00503
446.64914,0.01694
445.15935,0.02245
443.66956,0.03763
442.17977,0.04118
440.68998,0.04475
439.20020,0.04633
437.71041,0.05055
436.22062,0.05018
434.73083,0.04982
433.24104,0.04728
431.75125,0.04336
430.26146,0.05222
428.77168,0.06110
427.28189,0.04198
425.79210,0.03453
424.30231,0.03243
422.81252,0.03036
421.32273,0.05454
419.83295,0.04477
418.34316,0.03755
416.85337,0.03034
415.36358,0.04698
413.87379,0.04495
412.38400,0.04595
410.89422,0.04699
409.40443,0.04643
407.91464,0.04872
406.42485,0.05123
404.93506,0.04280
403.44527,0.03441
401.95548,0.02031
400.46570,0.02599
398.97591,0.03611
397.48612,0.04626
395.99633,0.02347
394.50654,0.01297
393.01675,0.02550
391.52697,0.03545
390.03718,0.03186
388.54739,0.02468
387.05760,0.03058
385.56781,0.03651
384.07802,0.02739
382.58824,0.00503
381.09845,0.01023
379.60866,0.01545
378.11887,0.00612
376.62908,0.00647
375.13929,0.01267
373.64950,0.01889
372.15972,0.01830
370.66993,0.02959
369.18014,0.02486
367.69035,0.02016
366.20056,0.01689
364.71077,0.02167
363.22099,0.02387
361.73120,0.02610
360.24141,0.03015
358.75162,0.02298
357.26183,0.01452
355.77204,0.00609
354.28225,0.01325
352.79247,0.03230
351.30268,0.04715
349.81289,0.06202
348.32310,0.06125
346.83331,0.08903
345.34352,0.07473
343.85374,0.06046
342.36395,0.02983
340.87416,0.03299
339.38437,0.02673
337.89458,0.02049
336.40479,0.00503
334.91501,0.02299
333.42522,0.02891
331.93543,0.03486
330.44564,0.02073
328.95585,0.04099
327.46606,0.04751
325.97627,0.05406
324.48649,0.04967
322.99670,0.04973
321.50691,0.04871
320.01712,0.04771
318.52733,0.06292
317.03754,0.08558
315.54776,0.08375
314.05797,0.08194
312.56818,0.09543
311.07839,0.10915
309.58860,0.09787
308.09881,0.08661
306.60902,0.06603
305.11924,0.05130
303.62945,0.02886
302.13966,0.00644
300.64987,0.01909
299.16008,0.00503
