1778.52000,0.01597
1777.03021,0.00860
1775.54042,0.00256
1774.05063,0.01966
1772.56085,0.01651
1771.07106,0.02014
1769.58127,0.01768
1768.09148,0.01787
1766.60169,0.01067
1765.11190,0.01418
1763.62212,0.00986
1762.13233,0.01015
1760.64254,0.01918
1759.15275,0.00316
1757.66296,0.00788
1756.17317,0.01349
1754.68339,0.00714
1753.19360,0.01411
1751.70381,0.01282
1750.21402,0.01112
1748.72423,0.01119
1747.23444,0.00670
1745.74465,0.00703
1744.25487,0.01001
1742.76508,0.00821
1741.27529,0.01189
1739.78550,0.00316
1738.29571,0.01998
1736.80592,0.01698
1735.31614,0.01117
1733.82635,0.01564
1732.33656,0.00181
1730.84677,0.00806
1729.35698,0.01086
1727.86719,0.00473
1726.37740,0.00212
1724.88762,0.00499
1723.39783,0.00504
1721.90804,0.00316
1720.41825,0.00520
1718.92846,0.01119
1717.43867,0.00608
1715.94889,0.01648
1714.45910,0.01796
1712.96931,0.01336
1711.47952,0.00900
1709.98973,0.00642
1708.49994,0.01061
1707.01016,0.00687
1705.52037,0.00316
1704.03058,0.01351
1702.54079,0.01102
1701.05100,0.01859
1699.56121,0.01135
1698.07142,0.01744
1696.58164,0.01876
1695.09185,0.01748
1693.60206,0.01884
1692.11227,0.01761
1690.62248,0.02317
1689.13269,0.03507
1687.64291,0.04177
1686.15312,0.02166
1684.66333,0.03407
1683.17354,0.03168
1681.68375,0.02909
1680.19396,0.04136
1678.70417,0.03250
1677.21439,0.03369
1675.72460,0.04036
1674.23481,0.04226
1672.74502,0.03371
1671.25523,0.04089
1669.76544,0.06227
1668.27566,0.06339
1666.78587,0.05712
1665.29608,0.06897
1663.80629,0.07540
1662.31650,0.07749
1660.82671,0.06935
1659.33693,0.08414
1657.84714,0.09306
1656.35735,0.07453
1654.86756,0.07391
1653.37777,0.07832
1651.88798,0.08320
1650.39819,0.07632
1648.90841,0.08561
1647.41862,0.08881
1645.92883,0.08899
1644.43904,0.08919
1642.94925,0.08112
1641.45946,0.10296
1639.96968,0.09800
1638.47989,0.08565
1636.99010,0.08139
1635.50031,0.09220
1634.01052,0.09540
1632.52073,0.10321
1631.03094,0.09294
1629.54116,0.08902
1628.05137,0.09385
1626.56158,0.06817
1625.07179,0.07871
1623.58200,0.07969
1622.09221,0.08788
1620.60243,0.10635
1619.11264,0.08886
1617.62285,0.10978
1616.13306,0.09364
1614.64327,0.10174
1613.15348,0.10310
1611.66370,0.10950
1610.17391,0.10066
1608.68412,0.10537
1607.19433,0.12667
1605.70454,0.11005
1604.21475,0.10371
1602.72496,0.09739
1601.23518,0.08150
1599.74539,0.11252
1598.25560,0.09995
1596.76581,0.10484
1595.27602,0.10366
1593.78623,0.09814
1592.29645,0.09417
1590.80666,0.09001
1589.31687,0.07780
1587.82708,0.08240
1586.33729,0.08856
1584.84750,0.09017
1583.35771,0.11120
1581.86793,0.08668
1580.37814,0.08443
1578.88835,0.08439
1577.39856,0.07325
1575.90877,0.06736
1574.41898,0.07349
1572.92920,0.06221
1571.43941,0.06708
1569.94962,0.06260
1568.45983,0.05814
1566.97004,0.04673
1565.48025,0.04560
1563.99047,0.03882
1562.50068,0.03838
1561.01089,0.03798
1559.52110,0.04152
1558.03131,0.02523
1556.54152,0.02163
1555.05173,0.03353
1553.56195,0.03477
1552.07216,0.04715
1550.58237,0.03448
1549.09258,0.01747
1547.60279,0.01183
1546.11300,0.00316
1544.62322,0.01433
1543.13343,0.01702
1541.64364,0.02693
1540.15385,0.02182
1538.66406,0.01673
1537.17427,0.02017
1535.68448,0.00837
1534.19470,0.01011
1532.70491,0.00316
1531.21512,0.02646
1529.72533,0.03038
1528.23554,0.02996
1526.74575,0.03196
1525.25597,0.04097
1523.76618,0.05981
1522.27639,0.04270
1520.78660,0.03717
1519.29681,0.03667
1517.80702,0.04122
1516.31724,0.03489
1514.82745,0.03512
1513.33766,0.04247
1511.84787,0.04984
1510.35808,0.05233
1508.86829,0.05833
1507.37850,0.05912
1505.88872,0.05645
1504.39893,0.05075
1502.90914,0.05226
1501.41935,0.05424
1499.92956,0.06366
1498.43977,0.07899
1496.94999,0.08715
1495.46020,0.08486
1493.97041,0.11793
1492.48062,0.12376
1490.99083,0.12307
1489.50104,0.11827
1488.01125,0.12832
1486.52147,0.13839
1485.03168,0.15481
1483.54189,0.18783
1482.05210,0.19623
1480.56231,0.20182
1479.07252,0.21899
1477.58274,0.22811
1476.09295,0.23530
1474.60316,0.26454
1473.11337,0.26458
1471.62358,0.27380
1470.13379,0.27847
1468.64401,0.28578
1467.15422,0.30249
1465.66443,0.32086
1464.17464,0.33926
1462.68485,0.36193
1461.19506,0.38789
1459.70527,0.42937
1458.21549,0.45822
1456.72570,0.52591
1455.23591,0.57073
1453.74612,0.63368
1452.25633,0.70341
1450.76654,0.73827
1449.27676,0.75440
1447.78697,0.72497
1446.29718,0.69709
1444.80739,0.68800
1443.31760,0.67892
1441.82781,0.59224
1440.33802,0.56031
1438.84824,0.53169
1437.35845,0.52249
1435.86866,0.50111
1434.37887,0.50374
1432.88908,0.55416
1431.39929,0.58780
1429.90951,0.65681
1428.41972,0.73412
1426.92993,0.84003
1425.44014,0.89405
1423.95035,0.90579
1422.46056,0.91756
1420.97078,0.92739
1419.48099,0.94923
1417.99120,0.94537
1416.50141,0.98035
1415.01162,0.89017
1413.52183,0.83230
1412.03204,0.78404
1410.54226,0.70397
1409.05247,0.64878
1407.56268,0.59755
1406.07289,0.54524
1404.58310,0.50692
1403.09331,0.46862
1401.60353,0.44365
1400.11374,0.38621
1398.62395,0.37154
1397.13416,0.30652
1395.64437,0.25220
1394.15458,0.21209
1392.66479,0.20079
1391.17501,0.16159
1389.68522,0.12547
1388.19543,0.08829
1386.70564,0.07283
1385.21585,0.05740
1383.72606,0.05322
1382.23628,0.03729
1380.74649,0.01745
1379.25670,0.00615
1377.76691,0.00316
1376.27712,0.01354
1374.78733,0.00149
1373.29755,0.00167
1371.80776,0.01416
1370.31797,0.01883
1368.82818,0.01098
1367.33839,0.00316
1365.84860,0.01236
1364.35881,0.02988
1362.86903,0.03259
1361.37924,0.06303
1359.88945,0.07713
1358.39966,0.10478
1356.90987,0.13397
1355.42008,0.18130
1353.93030,0.23693
1352.44051,0.27460
1350.95072,0.31229
1349.46093,0.40420
1347.97114,0.47629
1346.48135,0.51459
1344.99156,0.65303
1343.50178,0.69029
1342.01199,0.71624
1340.52220,0.76294
1339.03241,0.82972
1337.54262,0.89369
1336.05283,0.91897
1334.56305,0.94428
1333.07326,0.94071
1331.58347,0.96858
1330.09368,0.90683
1328.60389,0.89571
1327.11410,0.89660
1325.62432,0.85499
1324.13453,0.84220
1322.64474,0.77338
1321.15495,0.72661
1319.66516,0.70385
1318.17537,0.68112
1316.68558,0.66037
1315.19580,0.60192
1313.70601,0.55004
1312.21622,0.52065
1310.72643,0.47819
1309.23664,0.48373
1307.74685,0.45179
1306.25707,0.40025
1304.76728,0.37512
1303.27749,0.35001
1301.78770,0.33583
1300.29791,0.28853
1298.80812,0.23536
1297.31834,0.19399
1295.82855,0.17882
1294.33876,0.15037
1292.84897,0.13197
1291.35918,0.11230
1289.86939,0.11499
1288.37960,0.11772
1286.88982,0.09898
1285.40003,0.10601
1283.91024,0.10673
1282.42045,0.07629
1280.93066,0.05569
1279.44087,0.04907
1277.95109,0.05185
1276.46130,0.03176
1274.97151,0.03754
1273.48172,0.04334
1271.99193,0.03793
1270.50214,0.03407
1269.01235,0.03176
1267.52257,0.01967
1266.03278,0.01719
1264.54299,0.01692
1263.05320,0.02278
1261.56341,0.03216
1260.07362,0.04155
1258.58384,0.01935
1257.09405,0.01331
1255.60426,0.00316
1254.11447,0.01250
1252.62468,0.01095
1251.13489,0.02034
1249.64511,0.01274
1248.15532,0.02239
1246.66553,0.02847
1245.17574,0.03457
1243.68595,0.01682
1242.19616,0.00847
1240.70637,0.00974
1239.21659,0.02106
1237.72680,0.02456
1236.23701,0.02896
1234.74722,0.01266
1233.25743,0.01612
1231.76764,0.01960
1230.27786,0.00316
1228.78807,0.01466
1227.29828,0.02510
1225.80849,0.03993
1224.31870,0.02119
1222.82891,0.03148
1221.33912,0.04333
1219.84934,0.03448
1218.35955,0.02565
1216.86976,0.03299
1215.37997,0.04493
1213.89018,0.04773
1212.40039,0.06779
1210.91061,0.05865
1209.42082,0.08224
1207.93103,0.07446
1206.44124,0.06670
1204.95145,0.07859
1203.46166,0.06150
1201.97188,0.05905
1200.48209,0.06491
1198.99230,0.06316
1197.50251,0.05358
1196.01272,0.04730
1194.52293,0.04769
1193.03314,0.04811
1191.54336,0.01594
1190.05357,0.01587
1188.56378,0.03108
1187.07399,0.03061
1185.58420,0.03126
1184.09441,0.03237
1182.60463,0.02630
1181.11484,0.02026
1179.62505,0.00399
1178.13526,0.01938
1176.64547,0.00316
1175.15568,0.00437
1173.66589,0.01783
1172.17611,0.01604
1170.68632,0.00959
1169.19653,0.00316
1167.70674,0.03012
1166.21695,0.02679
1164.72716,0.03351
1163.23738,0.03350
1161.74759,0.05554
1160.25780,0.08808
1158.76801,0.08552
1157.27822,0.08299
1155.78843,0.09205
1154.29865,0.08825
1152.80886,0.08623
1151.31907,0.10125
1149.82928,0.12021
1148.33949,0.13941
1146.84970,0.13324
1145.35991,0.12708
1143.87013,0.11997
1142.38034,0.13928
1140.89055,0.16863
1139.40076,0.16661
1137.91097,0.18817
1136.42118,0.21542
1134.93140,0.22448
1133.44161,0.23357
1131.95182,0.23865
1130.46203,0.25705
1128.97224,0.26022
1127.48245,0.24356
1125.99266,0.23499
1124.50288,0.25764
1123.01309,0.26297
1121.52330,0.26833
1120.03351,0.27556
1118.54372,0.26166
1117.05393,0.26000
1115.56415,0.25488
1114.07436,0.24825
1112.58457,0.23816
1111.09478,0.22809
1109.60499,0.22895
1108.11520,0.24183
1106.62542,0.25801
1105.13563,0.24564
1103.64584,0.24136
1102.15605,0.22730
1100.66626,0.22972
1099.17647,0.23217
1097.68668,0.22930
1096.19690,0.22601
1094.70711,0.22799
1093.21732,0.20774
1091.72753,0.22045
1090.23774,0.22392
1088.74795,0.22741
1087.25817,0.21925
1085.76838,0.21243
1084.27859,0.20476
1082.78880,0.18970
1081.29901,0.21414
1079.80922,0.20349
1078.31943,0.20453
1076.82965,0.20560
1075.33986,0.24583
1073.85007,0.23506
1072.36028,0.26989
1070.87049,0.28818
1069.38070,0.33374
1067.89092,0.35775
1066.40113,0.38177
1064.91134,0.39753
1063.42155,0.48572
1061.93176,0.57590
1060.44197,0.62946
1058.95219,0.76331
1057.46240,0.80918
1055.97261,0.85507
1054.48282,0.93774
1052.99303,1.02937
1051.50324,1.01743
1050.01345,1.01076
1048.52367,1.00759
1047.03388,0.97807
1045.54409,0.94856
1044.05430,0.91232
1042.56451,0.87000
1041.07472,0.80568
1039.58494,0.69994
1038.09515,0.62738
1036.60536,0.60216
1035.11557,0.57697
1033.62578,0.50950
1032.13599,0.45622
1030.64620,0.37571
1029.15642,0.32139
1027.66663,0.29567
1026.17684,0.26997
1024.68705,0.24408
1023.19726,0.21755
1021.70747,0.17622
1020.21769,0.15084
1018.72790,0.13747
1017.23811,0.13874
1015.74832,0.14004
1014.25853,0.12565
1012.76874,0.11871
1011.27896,0.10808
1009.78917,0.08156
1008.29938,0.06945
1006.80959,0.06958
1005.31980,0.06974
1003.83001,0.05247
1002.34022,0.05115
1000.85044,0.04919
999.36065,0.03876
997.87086,0.05277
996.38107,0.06681
994.89128,0.09985
993.40149,0.12223
991.91171,0.14441
990.42192,0.15375
988.93213,0.17162
987.44234,0.17304
985.95255,0.17449
984.46276,0.16626
982.97297,0.15653
981.48319,0.13025
979.99340,0.10704
978.50361,0.09880
977.01382,0.09059
975.52403,0.05786
974.03424,0.03846
972.54446,0.03696
971.05467,0.02132
969.56488,0.03187
968.07509,0.02009
966.58530,0.00833
965.09551,0.01045
963.60573,0.02916
962.11594,0.02566
960.62615,0.02218
959.13636,0.01425
957.64657,0.00635
956.15678,0.00316
954.66699,0.02422
953.17721,0.04443
951.68742,0.04635
950.19763,0.05582
948.70784,0.06531
947.21805,0.07319
945.72826,0.08066
944.23848,0.09186
942.74869,0.09523
941.25890,0.11040
939.76911,0.12342
938.27932,0.13646
936.78953,0.14604
935.29974,0.17810
933.80996,0.21760
932.32017,0.21635
930.83038,0.22067
929.34059,0.22503
927.85080,0.25481
926.36101,0.26718
924.87123,0.28741
923.38144,0.33123
921.89165,0.36547
920.40186,0.39974
918.91207,0.51668
917.42228,0.62057
915.93250,0.76570
914.44271,1.00921
912.95292,1.11229
911.46313,1.21540
909.97334,1.44175
908.48355,1.64937
906.99376,1.80817
905.50398,1.89851
904.01419,1.93544
902.52440,1.97240
901.03461,2.00000
899.54482,1.98379
898.05503,1.83654
896.56525,1.60709
895.07546,1.45323
893.58567,1.29940
892.09588,1.07395
890.60609,0.84482
889.11630,0.65431
887.62651,0.46863
886.13673,0.40128
884.64694,0.33395
883.15715,0.24430
881.66736,0.16514
880.17757,0.14052
878.68778,0.12138
877.19800,0.10226
875.70821,0.07379
874.21842,0.05625
872.72863,0.03394
871.23884,0.03563
869.74905,0.03539
868.25927,0.03518
866.76948,0.02517
865.27969,0.04311
863.78990,0.05016
862.30011,0.05789
860.81032,0.06172
859.32053,0.06558
857.83075,0.08930
856.34096,0.11283
854.85117,0.13225
853.36138,0.12944
851.87159,0.13876
850.38180,0.14810
848.89202,0.16630
847.40223,0.20589
845.91244,0.20931
844.42265,0.22431
842.93286,0.23934
841.44307,0.25526
839.95329,0.23413
838.46350,0.27278
836.97371,0.29030
835.48392,0.29095
833.99413,0.29162
832.50434,0.29024
831.01455,0.29281
829.52477,0.25200
828.03498,0.22387
826.54519,0.21942
825.05540,0.21500
823.56561,0.19828
822.07582,0.17352
820.58604,0.17822
819.09625,0.16386
817.60646,0.14953
816.11667,0.15954
814.62688,0.15802
813.13709,0.14844
811.64730,0.15765
810.15752,0.15609
808.66773,0.15455
807.17794,0.13112
805.68815,0.15700
804.19836,0.16524
802.70857,0.16511
801.21879,0.16500
799.72900,0.15085
798.23921,0.13956
796.74942,0.14094
795.25963,0.14431
793.76984,0.14770
792.28006,0.16551
790.79027,0.16590
789.30048,0.19139
787.81069,0.22694
786.32090,0.24288
784.83111,0.25885
783.34132,0.29294
781.85154,0.32859
780.36175,0.36251
778.87196,0.38207
777.38217,0.40165
775.89238,0.42954
774.40259,0.45920
772.91281,0.43436
771.42302,0.41772
769.93323,0.40111
768.44344,0.34516
766.95365,0.27702
765.46386,0.26277
763.97407,0.21540
762.48429,0.20360
760.99450,0.19182
759.50471,0.15542
758.01492,0.12189
756.52513,0.10778
755.03534,0.10711
753.54556,0.10647
752.05577,0.07936
750.56598,0.07385
749.07619,0.07688
747.58640,0.06303
746.09661,0.04921
744.60683,0.05078
743.11704,0.04453
741.62725,0.02892
740.13746,0.02293
738.64767,0.01697
737.15788,0.01125
735.66809,0.00316
734.17831,0.01155
732.68852,0.01300
731.19873,0.01446
729.70894,0.01159
728.21915,0.00940
726.72936,0.00527
725.23958,0.01708
723.74979,0.01256
722.26000,0.00806
720.77021,0.00316
719.28042,0.01303
717.79063,0.00636
716.30084,0.01094
714.81106,0.01555
713.32127,0.01375
711.83148,0.01829
710.34169,0.00934
708.85190,0.01426
707.36211,0.01921
705.87233,0.04370
704.38254,0.03986
702.89275,0.05262
701.40296,0.04915
699.91317,0.04571
698.42338,0.06204
696.93360,0.08536
695.44381,0.09606
693.95402,0.10526
692.46423,0.11448
690.97444,0.12242
689.48465,0.15088
687.99486,0.16017
686.50508,0.16546
685.01529,0.17077
683.52550,0.20958
682.03571,0.22224
680.54592,0.24757
679.05613,0.25745
677.56635,0.26735
676.07656,0.25786
674.58677,0.23205
673.09698,0.19687
671.60719,0.20120
670.11740,0.20555
668.62761,0.18921
667.13783,0.16417
665.64804,0.13980
664.15825,0.11546
662.66846,0.09747
661.17867,0.08779
659.68888,0.05327
658.19910,0.04484
656.70931,0.03643
655.21952,0.03623
653.72973,0.04891
652.23994,0.06075
650.75015,0.05092
649.26037,0.04110
647.77058,0.04974
646.28079,0.01195
644.79100,0.03874
643.30121,0.03317
641.81142,0.02762
640.32163,0.03420
638.83185,0.01943
637.34206,0.00316
635.85227,0.00769
634.36248,0.01226
632.87269,0.01041
631.38290,0.01883
629.89312,0.02139
628.40333,0.01711
626.91354,0.01285
625.42375,0.00153
623.93396,0.00353
622.44417,0.01265
620.95438,0.02179
619.46460,0.03477
617.97481,0.04102
616.48502,0.06255
614.99523,0.07779
613.50544,0.09304
612.01565,0.15652
610.52587,0.16921
609.03608,0.18324
607.54629,0.21506
606.05650,0.24690
604.56671,0.26907
603.07692,0.29824
601.58714,0.32503
600.09735,0.35185
598.60756,0.38872
597.11777,0.40621
595.62798,0.40431
594.13819,0.39251
592.64840,0.38074
591.15862,0.36845
589.66883,0.32063
588.17904,0.30010
586.68925,0.27239
585.19946,0.24471
583.70967,0.19154
582.21989,0.14232
580.73010,0.12398
579.24031,0.10566
577.75052,0.10253
576.26073,0.06540
574.77094,0.04617
573.28115,0.05042
571.79137,0.05469
570.30158,0.07479
568.81179,0.08380
567.32200,0.10896
565.83221,0.13416
564.34242,0.14411
562.85264,0.15234
561.36285,0.19025
559.87306,0.20507
558.38327,0.21992
556.89348,0.18986
555.40369,0.22198
553.91391,0.22447
552.42412,0.22698
550.93433,0.23606
549.44454,0.21943
547.95475,0.21721
546.46496,0.23520
544.97517,0.25320
543.48539,0.26088
541.99560,0.33182
540.50581,0.34216
539.01602,0.35252
537.52623,0.38166
536.03644,0.40232
534.54666,0.43064
533.05687,0.45505
531.56708,0.47949
530.07729,0.55346
528.58750,0.57446
527.09771,0.61304
525.60792,0.65165
524.11814,0.68166
522.62835,0.76469
521.13856,0.84753
519.64877,0.85548
518.15898,0.86346
516.66919,0.94092
515.17941,0.95341
513.68962,0.92842
512.19983,0.90345
510.71004,0.89355
509.22025,0.80386
507.73046,0.75476
506.24068,0.70262
504.75089,0.65051
503.26110,0.52733
501.77131,0.41465
500.28152,0.37122
498.79173,0.32783
497.30194,0.26101
495.81216,0.22955
494.32237,0.20847
492.83258,0.18741
491.34279,0.13181
489.85300,0.10175
488.36321,0.07194
486.87343,0.07900
485.38364,0.08609
483.89385,0.12985
482.40406,0.13895
480.91427,0.15058
479.42448,0.16223
477.93469,0.17730
476.44491,0.20067
474.95512,0.20891
473.46533,0.21717
471.97554,0.21728
470.48575,0.20673
468.99596,0.22870
467.50618,0.21645
466.01639,0.20423
464.52660,0.16891
463.03681,0.13710
461.54702,0.12495
460.05723,0.11283
458.56745,0.07761
457.07766,0.05310
455.58787,0.04311
454.09808,0.03315
452.60829,0.04078
451.11850,0.03294
449.62871,0.01804
448.13893,0.00316
446.64914,0.02335
445.15935,0.03418
443.66956,0.05267
442.17977,0.05003
440.68998,0.04742
439.20020,0.04723
437.71041,0.05688
436.22062,0.05401
434.73083,0.05116
433.24104,0.05151
431.75125,0.07499
430.26146,0.06927
428.77168,0.06358
427.28189,0.03436
425.79210,0.05947
424.30231,0.04175
422.81252,0.02405
421.32273,0.06624
419.83295,0.03474
418.34316,0.03325
416.85337,0.03179
415.36358,0.04616
413.87379,0.06535
412.38400,0.05175
410.89422,0.03817
409.40443,0.04675
407.91464,0.03551
406.42485,0.03193
404.93506,0.03851
403.44527,0.04511
401.95548,0.03855
400.46570,0.03986
398.97591,0.03727
397.48612,0.03470
395.99633,0.01973
394.50654,0.03335
393.01675,0.02606
391.52697,0.01879
390.03718,0.02277
388.54739,0.03027
387.05760,0.02199
385.56781,0.01372
384.07802,0.01802
382.58824,0.00316
381.09845,0.00252
379.60866,0.00191
378.11887,0.01855
376.62908,0.00446
375.13929,0.00240
373.64950,0.00035
372.15972,0.04959
370.66993,0.02535
369.18014,0.02180
367.69035,0.01828
366.20056,0.03441
364.71077,0.03727
363.22099,0.03295
361.73120,0.02865
360.24141,0.05273
358.75162,0.01860
357.26183,0.01743
355.77204,0.01629
354.28225,0.01735
352.79247,0.06139
351.30268,0.06294
349.81289,0.06451
348.32310,0.07264
346.83331,0.09323
345.34352,0.08429
343.85374,0.07538
342.36395,0.03781
340.87416,0.02797
339.38437,0.02633
337.89458,0.02471
336.40479,0.00316
334.91501,0.01798
333.42522,0.02203
331.93543,0.02611
330.44564,0.00000
328.95585,0.04862
327.46606,0.04461
325.97627,0.04061
324.48649,0.02890
322.99670,0.02005
321.50691,0.02757
320.01712,0.03513
318.52733,0.04750
317.03754,0.05488
315.54776,0.06403
314.05797,0.07321
312.56818,0.09833
311.07839,0.12609
309.58860,0.10142
308.09881,0.07678
306.60902,0.05402
305.11924,0.05244
303.62945,0.03409
302.13966,0.01576
300.64987,0.00316
299.16008,0.00316
