1778.52000,0.01217
1777.03021,0.01168
1775.54042,0.01299
1774.05063,0.00831
1772.56085,0.01124
1771.07106,0.01018
1769.58127,0.01472
1768.09148,0.01683
1766.60169,0.00870
1765.11190,0.01309
1763.62212,0.00233
1762.13233,0.01703
1760.64254,0.00722
1759.15275,0.02197
1757.66296,0.01421
1756.17317,0.00848
1754.68339,0.00434
1753.19360,0.01584
1751.70381,0.00774
1750.21402,0.01572
1748.72423,0.00922
1747.23444,0.01837
1745.74465,0.00233
1744.25487,0.01485
1742.76508,0.01356
1741.27529,0.01252
1739.78550,0.00861
1738.29571,0.01364
1736.80592,0.02204
1735.31614,0.00973
1733.82635,0.00658
1732.33656,0.00569
1730.84677,0.00326
1729.35698,0.00398
1727.86719,0.00160
1726.37740,0.00749
1724.88762,0.00338
1723.39783,0.00888
1721.90804,0.00548
1720.41825,0.00947
1718.92846,0.00233
1717.43867,0.00910
1715.94889,0.00608
1714.45910,0.02161
1712.96931,0.01150
1711.47952,0.01168
1709.98973,0.00920
1708.49994,0.01077
1707.01016,0.01113
1705.52037,0.01152
1704.03058,0.01784
1702.54079,0.00233
1701.05100,0.00884
1699.56121,0.01404
1698.07142,0.02506
1696.58164,0.01559
1695.09185,0.02733
1693.60206,0.02682
1692.11227,0.01809
1690.62248,0.03146
1689.13269,0.03215
1687.64291,0.03130
1686.15312,0.02668
1684.66333,0.02119
1683.17354,0.02309
1681.68375,0.03081
1680.19396,0.03744
1678.70417,0.04008
1677.21439,0.04007
1675.72460,0.05659
1674.23481,0.04615
1672.74502,0.05402
1671.25523,0.05121
1669.76544,0.05377
1668.27566,0.05703
1666.78587,0.06366
1665.29608,0.05671
1663.80629,0.06696
1662.31650,0.05804
1660.82671,0.07481
1659.33693,0.07442
1657.84714,0.08432
1656.35735,0.07328
1654.86756,0.08970
1653.37777,0.06153
1651.88798,0.06461
1650.39819,0.07575
1648.90841,0.06282
1647.41862,0.07981
1645.92883,0.07596
1644.43904,0.07214
1642.94925,0.07649
1641.45946,0.07193
1639.96968,0.07030
1638.47989,0.07896
1636.99010,0.06980
1635.50031,0.07761
1634.01052,0.07564
1632.52073,0.08149
1631.03094,0.08113
1629.54116,0.09484
1628.05137,0.10546
1626.56158,0.07884
1625.07179,0.08794
1623.58200,0.06361
1622.09221,0.06428
1620.60243,0.06476
1619.11264,0.06682
1617.62285,0.07983
1616.13306,0.08618
1614.64327,0.07003
1613.15348,0.08490
1611.66370,0.09735
1610.17391,0.08171
1608.68412,0.07814
1607.19433,0.06523
1605.70454,0.08135
1604.21475,0.08153
1602.72496,0.08175
1601.23518,0.08053
1599.74539,0.08358
1598.25560,0.07082
1596.76581,0.06834
1595.27602,0.06098
1593.78623,0.07907
1592.29645,0.07065
1590.80666,0.06782
1589.31687,0.05453
1587.82708,0.06090
1586.33729,0.05480
1584.84750,0.07505
1583.35771,0.09198
1581.86793,0.06655
1580.37814,0.06211
1578.88835,0.05703
1577.39856,0.03591
1575.90877,0.04983
1574.41898,0.03456
1572.92920,0.04229
1571.43941,0.03354
1569.94962,0.03853
1568.45983,0.04355
1566.97004,0.03576
1565.48025,0.02599
1563.99047,0.02137
1562.50068,0.02838
1561.01089,0.01936
1559.52110,0.00857
1558.03131,0.00383
1556.54152,0.00692
1555.05173,0.00000
1553.56195,0.00024
1552.07216,0.00675
1550.58237,0.00950
1549.09258,0.00736
1547.60279,0.00792
1546.11300,0.00204
1544.62322,0.00087
1543.13343,0.00728
1541.64364,0.00233
1540.15385,0.00645
1538.66406,0.01059
1537.17427,0.01732
1535.68448,0.01270
1534.19470,0.01725
1532.70491,0.01067
1531.21512,0.00233
1529.72533,0.01628
1528.23554,0.01084
1526.74575,0.01658
1525.25597,0.02770
1523.76618,0.01676
1522.27639,0.02503
1520.78660,0.03577
1519.29681,0.04052
1517.80702,0.04016
1516.31724,0.03336
1514.82745,0.03350
1513.33766,0.04091
1511.84787,0.04834
1510.35808,0.04967
1508.86829,0.03831
1507.37850,0.05106
1505.88872,0.05513
1504.39893,0.05054
1502.90914,0.05689
1501.41935,0.04453
1499.92956,0.07169
1498.43977,0.07722
1496.94999,0.08056
1495.46020,0.09908
1493.97041,0.09332
1492.48062,0.12371
1490.99083,0.12358
1489.50104,0.15268
1488.01125,0.16152
1486.52147,0.17037
1485.03168,0.17435
1483.54189,0.19396
1482.05210,0.20535
1480.56231,0.22055
1479.07252,0.25407
1477.58274,0.26954
1476.09295,0.28973
1474.60316,0.28517
1473.11337,0.29470
1471.62358,0.30782
1470.13379,0.29798
1468.64401,0.31383
1467.15422,0.30761
1465.66443,0.32540
1464.17464,0.34321
1462.68485,0.36741
1461.19506,0.40881
1459.70527,0.48481
1458.21549,0.52492
1456.72570,0.54587
1455.23591,0.60387
1453.74612,0.65833
1452.25633,0.73870
1450.76654,0.74524
1449.27676,0.77925
1447.78697,0.75261
1446.29718,0.72130
1444.80739,0.71245
1443.31760,0.70361
1441.82781,0.65922
1440.33802,0.60771
1438.84824,0.54084
1437.35845,0.52463
1435.86866,0.53655
1434.37887,0.55073
1432.88908,0.60062
1431.39929,0.64653
1429.90951,0.67841
1428.41972,0.73752
1426.92993,0.81451
1425.44014,0.81657
1423.95035,0.84865
1422.46056,0.88076
1420.97078,0.91947
1419.48099,0.95643
1417.99120,0.94165
1416.50141,0.96460
1415.01162,0.90437
1413.52183,0.89168
1412.03204,0.85580
1410.54226,0.79341
1409.05247,0.70851
1407.56268,0.62565
1406.07289,0.56980
1404.58310,0.53940
1403.09331,0.50903
1401.60353,0.44032
1400.11374,0.38033
1398.62395,0.34669
1397.13416,0.33181
1395.64437,0.25360
1394.15458,0.21401
1392.66479,0.20166
1391.17501,0.15431
1389.68522,0.13375
1388.19543,0.10899
1386.70564,0.10264
1385.21585,0.09633
1383.72606,0.05803
1382.23628,0.02912
1380.74649,0.03503
1379.25670,0.02602
1377.76691,0.02284
1376.27712,0.02080
1374.78733,0.00161
1373.29755,0.00497
1371.80776,0.00233
1370.31797,0.01537
1368.82818,0.01806
1367.33839,0.02077
1365.84860,0.03522
1364.35881,0.04389
1362.86903,0.03519
1361.37924,0.05685
1359.88945,0.06493
1358.39966,0.09334
1356.90987,0.13582
1355.42008,0.17364
1353.93030,0.25053
1352.44051,0.27323
1350.95072,0.29595
1349.46093,0.37068
1347.97114,0.44544
1346.48135,0.50750
1344.99156,0.59457
1343.50178,0.66159
1342.01199,0.69116
1340.52220,0.73502
1339.03241,0.77646
1337.54262,0.84023
1336.05283,0.86053
1334.56305,0.88085
1333.07326,0.92216
1331.58347,0.92937
1330.09368,0.91875
1328.60389,0.87024
1327.11410,0.84182
1325.62432,0.82147
1324.13453,0.79622
1322.64474,0.77659
1321.15495,0.75251
1319.66516,0.73482
1318.17537,0.71715
1316.68558,0.65745
1315.19580,0.58573
1313.70601,0.55531
1312.21622,0.50461
1310.72643,0.50881
1309.23664,0.46285
1307.74685,0.41222
1306.25707,0.39375
1304.76728,0.37719
1303.27749,0.36066
1301.78770,0.30143
1300.29791,0.25628
1298.80812,0.23927
1297.31834,0.22361
1295.82855,0.18144
1294.33876,0.14174
1292.84897,0.11010
1291.35918,0.07960
1289.86939,0.07422
1288.37960,0.06887
1286.88982,0.07859
1285.40003,0.06626
1283.91024,0.08607
1282.42045,0.07825
1280.93066,0.07001
1279.44087,0.06848
1277.95109,0.05493
1276.46130,0.03248
1274.97151,0.02847
1273.48172,0.02447
1271.99193,0.02441
1270.50214,0.03173
1269.01235,0.02346
1267.52257,0.02793
1266.03278,0.01123
1264.54299,0.01307
1263.05320,0.02118
1261.56341,0.01493
1260.07362,0.00870
1258.58384,0.01845
1257.09405,0.01037
1255.60426,0.00723
1254.11447,0.00233
1252.62468,0.00476
1251.13489,0.01033
1249.64511,0.02285
1248.15532,0.01375
1246.66553,0.01360
1245.17574,0.01348
1243.68595,0.03167
1242.19616,0.01798
1240.70637,0.01592
1239.21659,0.00295
1237.72680,0.00786
1236.23701,0.01502
1234.74722,0.04429
1233.25743,0.03265
1231.76764,0.02103
1230.27786,0.01356
1228.78807,0.00233
1227.29828,0.01183
1225.80849,0.01556
1224.31870,0.02244
1222.82891,0.02465
1221.33912,0.04228
1219.84934,0.05146
1218.35955,0.06067
1216.86976,0.05272
1215.37997,0.06264
1213.89018,0.07749
1212.40039,0.08925
1210.91061,0.07359
1209.42082,0.06978
1207.93103,0.06867
1206.44124,0.06759
1204.95145,0.05894
1203.46166,0.06727
1201.97188,0.06961
1200.48209,0.07309
1198.99230,0.06900
1197.50251,0.06249
1196.01272,0.06157
1194.52293,0.05544
1193.03314,0.04934
1191.54336,0.06121
1190.05357,0.05549
1188.56378,0.03462
1187.07399,0.02382
1185.58420,0.00233
1184.09441,0.01663
1182.60463,0.01713
1181.11484,0.01765
1179.62505,0.02087
1178.13526,0.02434
1176.64547,0.02449
1175.15568,0.01016
1173.66589,0.00233
1172.17611,0.01223
1170.68632,0.01034
1169.19653,0.00846
1167.70674,0.01264
1166.21695,0.03803
1164.72716,0.03333
1163.23738,0.03825
1161.74759,0.03962
1160.25780,0.06043
1158.76801,0.06297
1157.27822,0.06553
1155.78843,0.08797
1154.29865,0.09527
1152.80886,0.09032
1151.31907,0.08473
1149.82928,0.11016
1148.33949,0.12916
1146.84970,0.13100
1145.35991,0.13287
1143.87013,0.13565
1142.38034,0.14961
1140.89055,0.14352
1139.40076,0.12385
1137.91097,0.16175
1136.42118,0.17693
1134.93140,0.18889
1133.44161,0.20088
1131.95182,0.21279
1130.46203,0.24435
1128.97224,0.27437
1127.48245,0.24842
1125.99266,0.22986
1124.50288,0.20642
1123.01309,0.21980
1121.52330,0.23322
1120.03351,0.22212
1118.54372,0.23669
1117.05393,0.25152
1115.56415,0.25232
1114.07436,0.23105
1112.58457,0.22966
1111.09478,0.22830
1109.60499,0.20466
1108.11520,0.20357
1106.62542,0.23017
1105.13563,0.22132
1103.64584,0.22410
1102.15605,0.23181
1100.66626,0.22158
1099.17647,0.21138
1097.68668,0.20667
1096.19690,0.20310
1094.70711,0.19866
1093.21732,0.18644
1091.72753,0.18406
1090.23774,0.18349
1088.74795,0.18294
1087.25817,0.20116
1085.76838,0.17456
1084.27859,0.18859
1082.78880,0.19282
1081.29901,0.19374
1079.80922,0.21476
1078.31943,0.21193
1076.82965,0.20912
1075.33986,0.23869
1073.85007,0.23236
1072.36028,0.23566
1070.87049,0.26329
1069.38070,0.28738
1067.89092,0.30000
1066.40113,0.31265
1064.91134,0.37206
1063.42155,0.46384
1061.93176,0.56412
1060.44197,0.69321
1058.95219,0.77524
1057.46240,0.81704
1055.97261,0.85886
1054.48282,0.90104
1052.99303,0.99344
1051.50324,1.01715
1050.01345,1.00609
1048.52367,1.00732
1047.03388,1.00679
1045.54409,1.00629
1044.05430,0.98662
1042.56451,0.87485
1041.07472,0.81865
1039.58494,0.72321
1038.09515,0.63672
1036.60536,0.59955
1035.11557,0.56241
1033.62578,0.48536
1032.13599,0.42418
1030.64620,0.36302
1029.15642,0.30813
1027.66663,0.27624
1026.17684,0.24438
1024.68705,0.22012
1023.19726,0.19010
1021.70747,0.17928
1020.21769,0.15153
1018.72790,0.15615
1017.23811,0.14284
1015.74832,0.12955
1014.25853,0.10926
1012.76874,0.10952
1011.27896,0.11360
1009.78917,0.11569
1008.29938,0.09661
1006.80959,0.07700
1005.31980,0.05742
1003.83001,0.03061
1002.34022,0.03349
1000.85044,0.03685
999.36065,0.06209
997.87086,0.06181
996.38107,0.06156
994.89128,0.09067
993.40149,0.09705
991.91171,0.12018
990.42192,0.12282
988.93213,0.13998
987.44234,0.14166
985.95255,0.14336
984.46276,0.16885
982.97297,0.14841
981.48319,0.12040
979.99340,0.08172
978.50361,0.08432
977.01382,0.08696
975.52403,0.07712
974.03424,0.04456
972.54446,0.04012
971.05467,0.03438
969.56488,0.00233
968.07509,0.00906
966.58530,0.01581
965.09551,0.00563
963.60573,0.01778
962.11594,0.02906
960.62615,0.00624
959.13636,0.01166
957.64657,0.01711
956.15678,0.01979
954.66699,0.01737
953.17721,0.02055
951.68742,0.03535
950.19763,0.03836
948.70784,0.04139
947.21805,0.07143
945.72826,0.07272
944.23848,0.08029
942.74869,0.10327
941.25890,0.10196
939.76911,0.10915
938.27932,0.11637
936.78953,0.14369
935.29974,0.15519
933.80996,0.17207
932.32017,0.21307
930.83038,0.21138
929.34059,0.20970
927.85080,0.25479
926.36101,0.28764
924.87123,0.30489
923.38144,0.32708
921.89165,0.34404
920.40186,0.36103
918.91207,0.49997
917.42228,0.64494
915.93250,0.80311
914.44271,0.98428
912.95292,1.10267
911.46313,1.22109
909.97334,1.38961
908.48355,1.63000
906.99376,1.79165
905.50398,1.87080
904.01419,1.89397
902.52440,1.91717
901.03461,1.97965
899.54482,2.00000
898.05503,1.87314
896.56525,1.67402
895.07546,1.53393
893.58567,1.39387
892.09588,1.15869
890.60609,0.88159
889.11630,0.68349
887.62651,0.50839
886.13673,0.43872
884.64694,0.36907
883.15715,0.28417
881.66736,0.20420
880.17757,0.13318
878.68778,0.12577
877.19800,0.11837
875.70821,0.08981
874.21842,0.06083
872.72863,0.03945
871.23884,0.03818
869.74905,0.04363
868.25927,0.04910
866.76948,0.03875
865.27969,0.03736
863.78990,0.04803
862.30011,0.06074
860.81032,0.07102
859.32053,0.08132
857.83075,0.09767
856.34096,0.12051
854.85117,0.12754
853.36138,0.14352
851.87159,0.14792
850.38180,0.15234
848.89202,0.18914
847.40223,0.19250
845.91244,0.22399
844.42265,0.23499
842.93286,0.24600
841.44307,0.24812
839.95329,0.27615
838.46350,0.30196
836.97371,0.30415
835.48392,0.29890
833.99413,0.29367
832.50434,0.26649
831.01455,0.28484
829.52477,0.27801
828.03498,0.25112
826.54519,0.22627
825.05540,0.20145
823.56561,0.21189
822.07582,0.17061
820.58604,0.17708
819.09625,0.17935
817.60646,0.18164
816.11667,0.16566
814.62688,0.16420
813.13709,0.14537
811.64730,0.16181
810.15752,0.16947
808.66773,0.17715
807.17794,0.17091
805.68815,0.16224
804.19836,0.16453
802.70857,0.16282
801.21879,0.16114
799.72900,0.15458
798.23921,0.17883
796.74942,0.17231
795.25963,0.16069
793.76984,0.14910
792.28006,0.17679
790.79027,0.19870
789.30048,0.20592
787.81069,0.23168
786.32090,0.25423
784.83111,0.27680
783.34132,0.33721
781.85154,0.35057
780.36175,0.36953
778.87196,0.38272
777.38217,0.39594
775.89238,0.42256
774.40259,0.45434
772.91281,0.43818
771.42302,0.42070
769.93323,0.40326
768.44344,0.36018
766.95365,0.30887
765.46386,0.26160
763.97407,0.22662
762.48429,0.21454
760.99450,0.20248
759.50471,0.16401
758.01492,0.12914
756.52513,0.10165
755.03534,0.10229
753.54556,0.10296
752.05577,0.08513
750.56598,0.08273
749.07619,0.07633
747.58640,0.07386
746.09661,0.07141
744.60683,0.07803
743.11704,0.06035
741.62725,0.05586
740.13746,0.03924
738.64767,0.02264
737.15788,0.02514
735.66809,0.01919
734.17831,0.00366
732.68852,0.00963
731.19873,0.01562
729.70894,0.00233
728.21915,0.01851
726.72936,0.01798
725.23958,0.00922
723.74979,0.00863
722.26000,0.00807
720.77021,0.01456
719.28042,0.03067
717.79063,0.00799
716.30084,0.00742
714.81106,0.00687
713.32127,0.00233
711.83148,0.00937
710.34169,0.01621
708.85190,0.02386
707.36211,0.03153
705.87233,0.03153
704.38254,0.03913
702.89275,0.04877
701.40296,0.04873
699.91317,0.04872
698.42338,0.06468
696.93360,0.07353
695.44381,0.07660
693.95402,0.08360
692.46423,0.09062
690.97444,0.13169
689.48465,0.15471
687.99486,0.15791
686.50508,0.17808
685.01529,0.19827
683.52550,0.21069
682.03571,0.22000
680.54592,0.21908
679.05613,0.22588
677.56635,0.23270
676.07656,0.25907
674.58677,0.25780
673.09698,0.22934
671.60719,0.20692
670.11740,0.18453
668.62761,0.16975
667.13783,0.15812
665.64804,0.13826
664.15825,0.11842
662.66846,0.10641
661.17867,0.08730
659.68888,0.07222
658.19910,0.05805
656.70931,0.04392
655.21952,0.02802
653.72973,0.06122
652.23994,0.07170
650.75015,0.06145
649.26037,0.05123
647.77058,0.05085
646.28079,0.05026
644.79100,0.04391
643.30121,0.03088
641.81142,0.01788
640.32163,0.03436
638.83185,0.03613
637.34206,0.03123
635.85227,0.01677
634.36248,0.00233
632.87269,0.00215
631.38290,0.00244
629.89312,0.00052
628.40333,0.00754
626.91354,0.01458
625.42375,0.01808
623.93396,0.00666
622.44417,0.00496
620.95438,0.00329
619.46460,0.02964
617.97481,0.06115
616.48502,0.05475
614.99523,0.06355
613.50544,0.07238
612.01565,0.10644
610.52587,0.15078
609.03608,0.22304
607.54629,0.22080
606.05650,0.21860
604.56671,0.26795
603.07692,0.32736
601.58714,0.33850
600.09735,0.34967
598.60756,0.40046
597.11777,0.42784
595.62798,0.42358
594.13819,0.39948
592.64840,0.37541
591.15862,0.36475
589.66883,0.31708
588.17904,0.25182
586.68925,0.23030
585.19946,0.20880
583.70967,0.16458
582.21989,0.10700
580.73010,0.09093
579.24031,0.07489
577.75052,0.05352
576.26073,0.05336
574.77094,0.05479
573.28115,0.04789
571.79137,0.04100
570.30158,0.03805
568.81179,0.06523
567.32200,0.07147
565.83221,0.07773
564.34242,0.09049
562.85264,0.14968
561.36285,0.14888
559.87306,0.15669
558.38327,0.16453
556.89348,0.16692
555.40369,0.16800
553.91391,0.17012
552.42412,0.17225
550.93433,0.21155
549.44454,0.20314
547.95475,0.22242
546.46496,0.22788
544.97517,0.23338
543.48539,0.24804
541.99560,0.28169
540.50581,0.28491
539.01602,0.28816
537.52623,0.33371
536.03644,0.36679
534.54666,0.38249
533.05687,0.40302
531.56708,0.42356
530.07729,0.46500
528.58750,0.52809
527.09771,0.55697
525.60792,0.58587
524.11814,0.64257
522.62835,0.67810
521.13856,0.71410
519.64877,0.74466
518.15898,0.77524
516.66919,0.82470
515.17941,0.81440
513.68962,0.82242
512.19983,0.83046
510.71004,0.80417
509.22025,0.74400
507.73046,0.65752
506.24068,0.60956
504.75089,0.56161
503.26110,0.46094
501.77131,0.38505
500.28152,0.33696
498.79173,0.28889
497.30194,0.21062
495.81216,0.15267
494.32237,0.14785
492.83258,0.14304
491.34279,0.10503
489.85300,0.08287
488.36321,0.05137
486.87343,0.05080
485.38364,0.05024
483.89385,0.06567
482.40406,0.11547
480.91427,0.12927
479.42448,0.14309
477.93469,0.15147
476.44491,0.15899
474.95512,0.15961
473.46533,0.16026
471.97554,0.19350
470.48575,0.21450
468.99596,0.19715
467.50618,0.20314
466.01639,0.20915
464.52660,0.16533
463.03681,0.12354
461.54702,0.10698
460.05723,0.09045
458.56745,0.07573
457.07766,0.03471
455.58787,0.02728
454.09808,0.01988
452.60829,0.03203
451.11850,0.04152
449.62871,0.03922
448.13893,0.03693
446.64914,0.00233
445.15935,0.00724
443.66956,0.00370
442.17977,0.01178
440.68998,0.01989
439.20020,0.00995
437.71041,0.03016
436.22062,0.04503
434.73083,0.05993
433.24104,0.03135
431.75125,0.03581
430.26146,0.05179
428.77168,0.06779
427.28189,0.07009
425.79210,0.06082
424.30231,0.04477
422.81252,0.02875
421.32273,0.01843
419.83295,0.04942
418.34316,0.03960
416.85337,0.02981
415.36358,0.03521
413.87379,0.04822
412.38400,0.04530
410.89422,0.04241
409.40443,0.04345
407.91464,0.05009
406.42485,0.04337
404.93506,0.03757
403.44527,0.03179
401.95548,0.02313
400.46570,0.04529
398.97591,0.02820
397.48612,0.01115
395.99633,0.06606
394.50654,0.02575
393.01675,0.02852
391.52697,0.03131
390.03718,0.02854
388.54739,0.02424
387.05760,0.02387
385.56781,0.02353
384.07802,0.03313
382.58824,0.01064
381.09845,0.01616
379.60866,0.02172
378.11887,0.01424
376.62908,0.00233
375.13929,0.00572
373.64950,0.00912
372.15972,0.01379
370.66993,0.03074
369.18014,0.02639
367.69035,0.02206
366.20056,0.04152
364.71077,0.03111
363.22099,0.03734
361.73120,0.04360
360.24141,0.05066
358.75162,0.04235
357.26183,0.03887
355.77204,0.03541
354.28225,0.04480
352.79247,0.06715
351.30268,0.06365
349.81289,0.06018
348.32310,0.11206
346.83331,0.11711
345.34352,0.11114
343.85374,0.10520
342.36395,0.09404
340.87416,0.06707
339.38437,0.04603
337.89458,0.02502
336.40479,0.01351
334.91501,0.01350
333.42522,0.01497
331.93543,0.01646
330.44564,0.01407
328.95585,0.00233
327.46606,0.01982
325.97627,0.03734
324.48649,0.05711
322.99670,0.04991
321.50691,0.03459
320.01712,0.01930
318.52733,0.04073
317.03754,0.04278
315.54776,0.04162
314.05797,0.04048
312.56818,0.08320
311.07839,0.09360
309.58860,0.09476
308.09881,0.09595
306.60902,0.08657
305.11924,0.05625
303.62945,0.04725
302.13966,0.03827
300.64987,0.01627
299.16008,0.00233
