1778.52000,0.02891
1777.03021,0.02396
1775.54042,0.02451
1774.05063,0.02098
1772.56085,0.01176
1771.07106,0.02175
1769.58127,0.01692
1768.09148,0.01965
1766.60169,0.01441
1765.11190,0.01673
1763.62212,0.00674
1762.13233,0.00866
1760.64254,0.01288
1759.15275,0.02010
1757.66296,0.01729
1756.17317,0.00605
1754.68339,0.01722
1753.19360,0.01860
1751.70381,0.01954
1750.21402,0.01457
1748.72423,0.00779
1747.23444,0.01041
1745.74465,0.01099
1744.25487,0.01182
1742.76508,0.01680
1741.27529,0.01471
1739.78550,0.01859
1738.29571,0.00901
1736.80592,0.01753
1735.31614,0.01740
1733.82635,0.01271
1732.33656,0.01354
1730.84677,0.01073
1729.35698,0.01161
1727.86719,0.00588
1726.37740,0.01046
1724.88762,0.01049
1723.39783,0.01260
1721.90804,0.00674
1720.41825,0.01056
1718.92846,0.01097
1717.43867,0.01164
1715.94889,0.01667
1714.45910,0.01144
1712.96931,0.01594
1711.47952,0.00630
1709.98973,0.00217
1708.49994,0.01220
1707.01016,0.00844
1705.52037,0.00470
1704.03058,0.01093
1702.54079,0.01672
1701.05100,0.02162
1699.56121,0.00484
1698.07142,0.00636
1696.58164,0.00677
1695.09185,0.00674
1693.60206,0.00923
1692.11227,0.01175
1690.62248,0.01931
1689.13269,0.00862
1687.64291,0.01281
1686.15312,0.02479
1684.66333,0.02240
1683.17354,0.02780
1681.68375,0.03300
1680.19396,0.02977
1678.70417,0.03341
1677.21439,0.03640
1675.72460,0.02799
1674.23481,0.02211
1672.74502,0.03202
1671.25523,0.05201
1669.76544,0.05764
1668.27566,0.06808
1666.78587,0.06712
1665.29608,0.05956
1663.80629,0.06894
1662.31650,0.06508
1660.82671,0.05691
1659.33693,0.07276
1657.84714,0.08383
1656.35735,0.08099
1654.86756,0.09485
1653.37777,0.08497
1651.88798,0.06940
1650.39819,0.08448
1648.90841,0.07742
1647.41862,0.08158
1645.92883,0.08073
1644.43904,0.07991
1642.94925,0.08437
1641.45946,0.08063
1639.96968,0.08285
1638.47989,0.08921
1636.99010,0.08577
1635.50031,0.08944
1634.01052,0.08604
1632.52073,0.08268
1631.03094,0.08573
1629.54116,0.09315
1628.05137,0.09511
1626.56158,0.09801
1625.07179,0.09659
1623.58200,0.10571
1622.09221,0.09063
1620.60243,0.08448
1619.11264,0.09139
1617.62285,0.09580
1616.13306,0.09636
1614.64327,0.07706
1613.15348,0.09549
1611.66370,0.08903
1610.17391,0.10431
1608.68412,0.08762
1607.19433,0.09403
1605.70454,0.08950
1604.21475,0.08888
1602.72496,0.08829
1601.23518,0.08451
1599.74539,0.08351
1598.25560,0.07247
1596.76581,0.08843
1595.27602,0.08201
1593.78623,0.07836
1592.29645,0.08844
1590.80666,0.08096
1589.31687,0.08264
1587.82708,0.08251
1586.33729,0.07533
1584.84750,0.07982
1583.35771,0.07474
1581.86793,0.07106
1580.37814,0.08019
1578.88835,0.08661
1577.39856,0.05284
1575.90877,0.05314
1574.41898,0.05803
1572.92920,0.02707
1571.43941,0.03179
1569.94962,0.03412
1568.45983,0.03648
1566.97004,0.04127
1565.48025,0.02826
1563.99047,0.02235
1562.50068,0.01190
1561.01089,0.03300
1559.52110,0.03106
1558.03131,0.02456
1556.54152,0.01604
1555.05173,0.02124
1553.56195,0.01688
1552.07216,0.01300
1550.58237,0.01828
1549.09258,0.00873
1547.60279,0.00561
1546.11300,0.00845
1544.62322,0.00674
1543.13343,0.01075
1541.64364,0.00976
1540.15385,0.00937
1538.66406,0.00899
1537.17427,0.01570
1535.68448,0.01283
1534.19470,0.01067
1532.70491,0.01603
1531.21512,0.02507
1529.72533,0.02065
1528.23554,0.00827
1526.74575,0.02109
1525.25597,0.01359
1523.76618,0.02646
1522.27639,0.02747
1520.78660,0.03102
1519.29681,0.03733
1517.80702,0.04161
1516.31724,0.02878
1514.82745,0.02717
1513.33766,0.03438
1511.84787,0.04162
1510.35808,0.03528
1508.86829,0.04063
1507.37850,0.04096
1505.88872,0.04658
1504.39893,0.05086
1502.90914,0.05241
1501.41935,0.05627
1499.92956,0.05011
1498.43977,0.06133
1496.94999,0.07624
1495.46020,0.07951
1493.97041,0.07801
1492.48062,0.08979
1490.99083,0.10045
1489.50104,0.12210
1488.01125,0.13144
1486.52147,0.14080
1485.03168,0.14836
1483.54189,0.17400
1482.05210,0.17977
1480.56231,0.18421
1479.07252,0.21951
1477.58274,0.23998
1476.09295,0.25043
1474.60316,0.24125
1473.11337,0.23507
1471.62358,0.26227
1470.13379,0.27943
1468.64401,0.28658
1467.15422,0.31179
1465.66443,0.32366
1464.17464,0.33556
1462.68485,0.34554
1461.19506,0.39667
1459.70527,0.41744
1458.21549,0.45262
1456.72570,0.53353
1455.23591,0.58727
1453.74612,0.63601
1452.25633,0.69346
1450.76654,0.70158
1449.27676,0.72663
1447.78697,0.70281
1446.29718,0.68746
1444.80739,0.67523
1443.31760,0.66302
1441.82781,0.62558
1440.33802,0.56075
1438.84824,0.52428
1437.35845,0.50497
1435.86866,0.48340
1434.37887,0.49796
1432.88908,0.53013
1431.39929,0.60185
1429.90951,0.66195
1428.41972,0.72824
1426.92993,0.79478
1425.44014,0.84786
1423.95035,0.87093
1422.46056,0.89402
1420.97078,0.94261
1419.48099,0.98299
1417.99120,0.95783
1416.50141,0.91167
1415.01162,0.89135
1413.52183,0.85667
1412.03204,0.80715
1410.54226,0.77160
1409.05247,0.71322
1407.56268,0.65601
1406.07289,0.57758
1404.58310,0.54224
1403.09331,0.50692
1401.60353,0.43221
1400.11374,0.41488
1398.62395,0.37312
1397.13416,0.30832
1395.64437,0.26638
1394.15458,0.21373
1392.66479,0.18647
1391.17501,0.15717
1389.68522,0.14641
1388.19543,0.11167
1386.70564,0.09536
1385.21585,0.07907
1383.72606,0.05218
1382.23628,0.03263
1380.74649,0.01835
1379.25670,0.01233
1377.76691,0.01890
1376.27712,0.01635
1374.78733,0.00674
1373.29755,0.02028
1371.80776,0.01030
1370.31797,0.00789
1368.82818,0.00938
1367.33839,0.01090
1365.84860,0.02855
1364.35881,0.06359
1362.86903,0.05112
1361.37924,0.05582
1359.88945,0.06123
1358.39966,0.09842
1356.90987,0.12490
1355.42008,0.16671
1353.93030,0.22203
1352.44051,0.26846
1350.95072,0.31491
1349.46093,0.40412
1347.97114,0.48466
1346.48135,0.55541
1344.99156,0.60698
1343.50178,0.68555
1342.01199,0.75043
1340.52220,0.80962
1339.03241,0.86426
1337.54262,0.87141
1336.05283,0.90062
1334.56305,0.92986
1333.07326,0.95833
1331.58347,0.99459
1330.09368,0.96964
1328.60389,0.96276
1327.11410,0.92255
1325.62432,0.89310
1324.13453,0.87373
1322.64474,0.83062
1321.15495,0.78685
1319.66516,0.77624
1318.17537,0.76565
1316.68558,0.69362
1315.19580,0.64263
1313.70601,0.56631
1312.21622,0.51903
1310.72643,0.50856
1309.23664,0.46362
1307.74685,0.45480
1306.25707,0.40624
1304.76728,0.38490
1303.27749,0.36359
1301.78770,0.33293
1300.29791,0.28013
1298.80812,0.25615
1297.31834,0.21505
1295.82855,0.18358
1294.33876,0.14185
1292.84897,0.12116
1291.35918,0.12586
1289.86939,0.11276
1288.37960,0.09968
1286.88982,0.10697
1285.40003,0.10011
1283.91024,0.09396
1282.42045,0.08510
1280.93066,0.06826
1279.44087,0.05853
1277.95109,0.07807
1276.46130,0.06199
1274.97151,0.05679
1273.48172,0.05161
1271.99193,0.03104
1270.50214,0.03745
1269.01235,0.04160
1267.52257,0.04554
1266.03278,0.03672
1264.54299,0.03957
1263.05320,0.03787
1261.56341,0.03415
1260.07362,0.03045
1258.58384,0.01968
1257.09405,0.02129
1255.60426,0.02040
1254.11447,0.00674
1252.62468,0.02617
1251.13489,0.02461
1249.64511,0.02855
1248.15532,0.03754
1246.66553,0.03296
1245.17574,0.02841
1243.68595,0.02102
1242.19616,0.02760
1240.70637,0.02414
1239.21659,0.03145
1237.72680,0.02142
1236.23701,0.02604
1234.74722,0.03617
1233.25743,0.03363
1231.76764,0.03113
1230.27786,0.02236
1228.78807,0.03144
1227.29828,0.02615
1225.80849,0.00763
1224.31870,0.01701
1222.82891,0.02094
1221.33912,0.03311
1219.84934,0.02977
1218.35955,0.02645
1216.86976,0.04715
1215.37997,0.05073
1213.89018,0.06486
1212.40039,0.06301
1210.91061,0.07512
1209.42082,0.07469
1207.93103,0.07132
1206.44124,0.06797
1204.95145,0.06213
1203.46166,0.07413
1201.97188,0.06994
1200.48209,0.07834
1198.99230,0.05135
1197.50251,0.06848
1196.01272,0.06073
1194.52293,0.05346
1193.03314,0.04621
1191.54336,0.04745
1190.05357,0.02609
1188.56378,0.02234
1187.07399,0.01862
1185.58420,0.02018
1184.09441,0.01537
1182.60463,0.01983
1181.11484,0.02432
1179.62505,0.03534
1178.13526,0.01646
1176.64547,0.00674
1175.15568,0.02186
1173.66589,0.01188
1172.17611,0.01814
1170.68632,0.01243
1169.19653,0.00674
1167.70674,0.01359
1166.21695,0.02868
1164.72716,0.02027
1163.23738,0.03861
1161.74759,0.06703
1160.25780,0.06828
1158.76801,0.07687
1157.27822,0.08549
1155.78843,0.07836
1154.29865,0.09731
1152.80886,0.11765
1151.31907,0.12362
1149.82928,0.12322
1148.33949,0.13061
1146.84970,0.13962
1145.35991,0.14866
1143.87013,0.14332
1142.38034,0.12933
1140.89055,0.13068
1139.40076,0.14781
1137.91097,0.16314
1136.42118,0.19677
1134.93140,0.19981
1133.44161,0.20287
1131.95182,0.22218
1130.46203,0.23420
1128.97224,0.23894
1127.48245,0.22359
1125.99266,0.22358
1124.50288,0.23478
1123.01309,0.23276
1121.52330,0.23076
1120.03351,0.22765
1118.54372,0.22638
1117.05393,0.24182
1115.56415,0.23924
1114.07436,0.24033
1112.58457,0.22648
1111.09478,0.21266
1109.60499,0.22640
1108.11520,0.24015
1106.62542,0.22743
1105.13563,0.22981
1103.64584,0.21508
1102.15605,0.19192
1100.66626,0.19598
1099.17647,0.20006
1097.68668,0.19639
1096.19690,0.22588
1094.70711,0.21930
1093.21732,0.19331
1091.72753,0.18997
1090.23774,0.18883
1088.74795,0.18771
1087.25817,0.18170
1085.76838,0.16932
1084.27859,0.19832
1082.78880,0.19489
1081.29901,0.22920
1079.80922,0.21874
1078.31943,0.22716
1076.82965,0.23560
1075.33986,0.27160
1073.85007,0.24776
1072.36028,0.22851
1070.87049,0.25248
1069.38070,0.25978
1067.89092,0.29099
1066.40113,0.32222
1064.91134,0.41163
1063.42155,0.46907
1061.93176,0.60628
1060.44197,0.69919
1058.95219,0.80720
1057.46240,0.85149
1055.97261,0.89580
1054.48282,0.94996
1052.99303,1.00301
1051.50324,1.06430
1050.01345,1.08815
1048.52367,1.08894
1047.03388,1.06931
1045.54409,1.04970
1044.05430,0.95391
1042.56451,0.86912
1041.07472,0.82297
1039.58494,0.75033
1038.09515,0.63774
1036.60536,0.60160
1035.11557,0.56548
1033.62578,0.52242
1032.13599,0.44533
1030.64620,0.36256
1029.15642,0.31158
1027.66663,0.28392
1026.17684,0.25629
1024.68705,0.25039
1023.19726,0.20704
1021.70747,0.17011
1020.21769,0.16748
1018.72790,0.16214
1017.23811,0.14767
1015.74832,0.13324
1014.25853,0.13002
1012.76874,0.13322
1011.27896,0.11977
1009.78917,0.09355
1008.29938,0.08974
1006.80959,0.07385
1005.31980,0.05798
1003.83001,0.04374
1002.34022,0.04689
1000.85044,0.05463
999.36065,0.05919
997.87086,0.06435
996.38107,0.06954
994.89128,0.07646
993.40149,0.10032
991.91171,0.10455
990.42192,0.13827
988.93213,0.15192
987.44234,0.15291
985.95255,0.15392
984.46276,0.15051
982.97297,0.15031
981.48319,0.11473
979.99340,0.10087
978.50361,0.09138
977.01382,0.08192
975.52403,0.07636
974.03424,0.05461
972.54446,0.01986
971.05467,0.02328
969.56488,0.03473
968.07509,0.03581
966.58530,0.03691
965.09551,0.01393
963.60573,0.00674
962.11594,0.01182
960.62615,0.01053
959.13636,0.01337
957.64657,0.01624
956.15678,0.01045
954.66699,0.02593
953.17721,0.03276
951.68742,0.03686
950.19763,0.03403
948.70784,0.03121
947.21805,0.06624
945.72826,0.06610
944.23848,0.08747
942.74869,0.09172
941.25890,0.12182
939.76911,0.12749
938.27932,0.13319
936.78953,0.14531
935.29974,0.17504
933.80996,0.17807
932.32017,0.19895
930.83038,0.21436
929.34059,0.22980
927.85080,0.24138
926.36101,0.25161
924.87123,0.31671
923.38144,0.37520
921.89165,0.39887
920.40186,0.42257
918.91207,0.50604
917.42228,0.60187
915.93250,0.75439
914.44271,0.93550
912.95292,1.02695
911.46313,1.11842
909.97334,1.38483
908.48355,1.62293
906.99376,1.80690
905.50398,1.90566
904.01419,1.95282
902.52440,2.00000
901.03461,1.98757
899.54482,1.90456
898.05503,1.77908
896.56525,1.56382
895.07546,1.44398
893.58567,1.32417
892.09588,1.06535
890.60609,0.85545
889.11630,0.63712
887.62651,0.45102
886.13673,0.39462
884.64694,0.33825
883.15715,0.23448
881.66736,0.18033
880.17757,0.13968
878.68778,0.12098
877.19800,0.10232
875.70821,0.05968
874.21842,0.03421
872.72863,0.04280
871.23884,0.02674
869.74905,0.02682
868.25927,0.02692
866.76948,0.03264
865.27969,0.02719
863.78990,0.03319
862.30011,0.04401
860.81032,0.05165
859.32053,0.05932
857.83075,0.06999
856.34096,0.08616
854.85117,0.11127
853.36138,0.12704
851.87159,0.13894
850.38180,0.15087
848.89202,0.16762
847.40223,0.19994
845.91244,0.20897
844.42265,0.20660
842.93286,0.20426
841.44307,0.22593
839.95329,0.25631
838.46350,0.25518
836.97371,0.27464
835.48392,0.27356
833.99413,0.27250
832.50434,0.27262
831.01455,0.27344
829.52477,0.26400
828.03498,0.22740
826.54519,0.21652
825.05540,0.20568
823.56561,0.17692
822.07582,0.15366
820.58604,0.12609
819.09625,0.12562
817.60646,0.12518
816.11667,0.13470
814.62688,0.14584
813.13709,0.15426
811.64730,0.15311
810.15752,0.14068
808.66773,0.12827
807.17794,0.12628
805.68815,0.17504
804.19836,0.17082
802.70857,0.15976
801.21879,0.14873
799.72900,0.13110
798.23921,0.13314
796.74942,0.11647
795.25963,0.12381
793.76984,0.13118
792.28006,0.16508
790.79027,0.17798
789.30048,0.17332
787.81069,0.21528
786.32090,0.22403
784.83111,0.23280
783.34132,0.27919
781.85154,0.30800
780.36175,0.35169
778.87196,0.36753
777.38217,0.38339
775.89238,0.40270
774.40259,0.42593
772.91281,0.37766
771.42302,0.37100
769.93323,0.36436
768.44344,0.34495
766.95365,0.29449
765.46386,0.26417
763.97407,0.22427
762.48429,0.19536
760.99450,0.16648
759.50471,0.12848
758.01492,0.09668
756.52513,0.08684
755.03534,0.09198
753.54556,0.09715
752.05577,0.08784
750.56598,0.07352
749.07619,0.04277
747.58640,0.04050
746.09661,0.03825
744.60683,0.02380
743.11704,0.02857
741.62725,0.02263
740.13746,0.01636
738.64767,0.01012
737.15788,0.01202
735.66809,0.00982
734.17831,0.00674
732.68852,0.01510
731.19873,0.02349
729.70894,0.00962
728.21915,0.02754
726.72936,0.02172
725.23958,0.02300
723.74979,0.01723
722.26000,0.01148
720.77021,0.02225
719.28042,0.00905
717.79063,0.00992
716.30084,0.01847
714.81106,0.02705
713.32127,0.00674
711.83148,0.01678
710.34169,0.02730
708.85190,0.03510
707.36211,0.04293
705.87233,0.04301
704.38254,0.04540
702.89275,0.05558
701.40296,0.06145
699.91317,0.06734
698.42338,0.05543
696.93360,0.08674
695.44381,0.10938
693.95402,0.10611
692.46423,0.10287
690.97444,0.14296
689.48465,0.15039
687.99486,0.17864
686.50508,0.18909
685.01529,0.19956
683.52550,0.21760
682.03571,0.23498
680.54592,0.24507
679.05613,0.26193
677.56635,0.27881
676.07656,0.26384
674.58677,0.25735
673.09698,0.22644
671.60719,0.20788
670.11740,0.18936
668.62761,0.16308
667.13783,0.14026
665.64804,0.13883
664.15825,0.13742
662.66846,0.11627
661.17867,0.08487
659.68888,0.06994
658.19910,0.06189
656.70931,0.05386
655.21952,0.03169
653.72973,0.05227
652.23994,0.06854
650.75015,0.06255
649.26037,0.05659
647.77058,0.04825
646.28079,0.04702
644.79100,0.04101
643.30121,0.02749
641.81142,0.01400
640.32163,0.03708
638.83185,0.02775
637.34206,0.02347
635.85227,0.01532
634.36248,0.00720
632.87269,0.00674
631.38290,0.01193
629.89312,0.02240
628.40333,0.02421
626.91354,0.02604
625.42375,0.01557
623.93396,0.02133
622.44417,0.02164
620.95438,0.02197
619.46460,0.03627
617.97481,0.04282
616.48502,0.05785
614.99523,0.07507
613.50544,0.09232
612.01565,0.13690
610.52587,0.17213
609.03608,0.19322
607.54629,0.21491
606.05650,0.23662
604.56671,0.29251
603.07692,0.32627
601.58714,0.34120
600.09735,0.35615
598.60756,0.38175
597.11777,0.44896
595.62798,0.45154
594.13819,0.44065
592.64840,0.42979
591.15862,0.37486
589.66883,0.30031
588.17904,0.26941
586.68925,0.23626
585.19946,0.20313
583.70967,0.17871
582.21989,0.14426
580.73010,0.13154
579.24031,0.11884
577.75052,0.09429
576.26073,0.06428
574.77094,0.05188
573.28115,0.05174
571.79137,0.05162
570.30158,0.07494
568.81179,0.09029
567.32200,0.08487
565.83221,0.07948
564.34242,0.11112
562.85264,0.13913
561.36285,0.15095
559.87306,0.17456
558.38327,0.19819
556.89348,0.17420
555.40369,0.19525
553.91391,0.19954
552.42412,0.20384
550.93433,0.20989
549.44454,0.17186
547.95475,0.19052
546.46496,0.19367
544.97517,0.19684
543.48539,0.25693
541.99560,0.26975
540.50581,0.29870
539.01602,0.32767
537.52623,0.38648
536.03644,0.41608
534.54666,0.40594
533.05687,0.43307
531.56708,0.46022
530.07729,0.52601
528.58750,0.53859
527.09771,0.57381
525.60792,0.60906
524.11814,0.63702
522.62835,0.68511
521.13856,0.74488
519.64877,0.76275
518.15898,0.78064
516.66919,0.83157
515.17941,0.88092
513.68962,0.86576
512.19983,0.85061
510.71004,0.81093
509.22025,0.72672
507.73046,0.64344
506.24068,0.58761
504.75089,0.53181
503.26110,0.46620
501.77131,0.37822
500.28152,0.33346
498.79173,0.28871
497.30194,0.23783
495.81216,0.17508
494.32237,0.15098
492.83258,0.12689
491.34279,0.09987
489.85300,0.05710
488.36321,0.07079
486.87343,0.06680
485.38364,0.06283
483.89385,0.06791
482.40406,0.08833
480.91427,0.09220
479.42448,0.09610
477.93469,0.14081
476.44491,0.14876
474.95512,0.16964
473.46533,0.19054
471.97554,0.20747
470.48575,0.20820
468.99596,0.18976
467.50618,0.17832
466.01639,0.16690
464.52660,0.12203
463.03681,0.10232
461.54702,0.09212
460.05723,0.08193
458.56745,0.03374
457.07766,0.04634
455.58787,0.05028
454.09808,0.05425
452.60829,0.02443
451.11850,0.00674
449.62871,0.01873
448.13893,0.03074
446.64914,0.01021
445.15935,0.00730
443.66956,0.02407
442.17977,0.01881
440.68998,0.01358
439.20020,0.01396
437.71041,0.02763
436.22062,0.02829
434.73083,0.02898
433.24104,0.01804
431.75125,0.01673
430.26146,0.01589
428.77168,0.01508
427.28189,0.03759
425.79210,0.03592
424.30231,0.04020
422.81252,0.04451
421.32273,0.04040
419.83295,0.01779
418.34316,0.02058
416.85337,0.02339
415.36358,0.01297
413.87379,0.02040
412.38400,0.03402
410.89422,0.04766
409.40443,0.04739
407.91464,0.02841
406.42485,0.03711
404.93506,0.03485
403.44527,0.03263
401.95548,0.04688
400.46570,0.02847
398.97591,0.02598
397.48612,0.02350
395.99633,0.03374
394.50654,0.00789
393.01675,0.01075
391.52697,0.00721
390.03718,0.00746
388.54739,0.03836
387.05760,0.03261
385.56781,0.02688
384.07802,0.02907
382.58824,0.01528
381.09845,0.00905
379.60866,0.00285
378.11887,0.02866
376.62908,0.02503
375.13929,0.01250
373.64950,0.00000
372.15972,0.02155
370.66993,0.03719
369.18014,0.03605
367.69035,0.03494
366.20056,0.02117
364.71077,0.03371
363.22099,0.03198
361.73120,0.03028
360.24141,0.02004
358.75162,0.02033
357.26183,0.03482
355.77204,0.04932
354.28225,0.04512
352.79247,0.03637
351.30268,0.05312
349.81289,0.06989
348.32310,0.07104
346.83331,0.05713
345.34352,0.05627
343.85374,0.05544
342.36395,0.02629
340.87416,0.05477
339.38437,0.04477
337.89458,0.03479
336.40479,0.04186
334.91501,0.02565
333.42522,0.02191
331.93543,0.01820
330.44564,0.01326
328.95585,0.00674
327.46606,0.01507
325.97627,0.02341
324.48649,0.03928
322.99670,0.05951
321.50691,0.06468
320.01712,0.06988
318.52733,0.08561
317.03754,0.07875
315.54776,0.07191
314.05797,0.06510
312.56818,0.06425
311.07839,0.05885
309.58860,0.05862
308.09881,0.05842
306.60902,0.06498
305.11924,0.04757
303.62945,0.05612
302.13966,0.06469
300.64987,0.02954
299.16008,0.00674
