1778.52000,0.00450
1777.03021,0.01298
1775.54042,0.00458
1774.05063,0.00664
1772.56085,0.02589
1771.07106,0.01010
1769.58127,0.01448
1768.09148,0.01192
1766.60169,0.01112
1765.11190,0.00986
1763.62212,0.01632
1762.13233,0.00665
1760.64254,0.00844
1759.15275,0.01026
1757.66296,0.01508
1756.17317,0.00426
1754.68339,0.01561
1753.19360,0.00882
1751.70381,0.00181
1750.21402,0.01173
1748.72423,0.00601
1747.23444,0.01897
1745.74465,0.01454
1744.25487,0.01089
1742.76508,0.01547
1741.27529,0.00564
1739.78550,0.01358
1738.29571,0.00736
1736.80592,0.02401
1735.31614,0.02925
1733.82635,0.01784
1732.33656,0.00000
1730.84677,0.00282
1729.35698,0.00741
1727.86719,0.01376
1726.37740,0.00497
1724.88762,0.00764
1723.39783,0.01034
1721.90804,0.00934
1720.41825,0.01109
1718.92846,0.00665
1717.43867,0.01694
1715.94889,0.00836
1714.45910,0.01739
1712.96931,0.01923
1711.47952,0.01014
1709.98973,0.00606
1708.49994,0.01146
1707.01016,0.00904
1705.52037,0.00665
1704.03058,0.01839
1702.54079,0.01697
1701.05100,0.02030
1699.56121,0.02191
1698.07142,0.02181
1696.58164,0.02348
1695.09185,0.02542
1693.60206,0.02837
1692.11227,0.03186
1690.62248,0.03611
1689.13269,0.04909
1687.64291,0.04618
1686.15312,0.04951
1684.66333,0.04864
1683.17354,0.04804
1681.68375,0.05045
1680.19396,0.04791
1678.70417,0.04863
1677.21439,0.06704
1675.72460,0.06258
1674.23481,0.05741
1672.74502,0.06445
1671.25523,0.06455
1669.76544,0.08009
1668.27566,0.08247
1666.78587,0.08688
1665.29608,0.09677
1663.80629,0.09550
1662.31650,0.09874
1660.82671,0.08856
1659.33693,0.11100
1657.84714,0.10112
1656.35735,0.10321
1654.86756,0.10831
1653.37777,0.09727
1651.88798,0.09197
1650.39819,0.08943
1648.90841,0.09911
1647.41862,0.09438
1645.92883,0.09366
1644.43904,0.09296
1642.94925,0.09726
1641.45946,0.09861
1639.96968,0.08207
1638.47989,0.10062
1636.99010,0.08289
1635.50031,0.09676
1634.01052,0.08729
1632.52073,0.08629
1631.03094,0.09079
1629.54116,0.08413
1628.05137,0.07500
1626.56158,0.08231
1625.07179,0.10134
1623.58200,0.11890
1622.09221,0.10763
1620.60243,0.11131
1619.11264,0.10482
1617.62285,0.10631
1616.13306,0.08769
1614.64327,0.08724
1613.15348,0.10149
1611.66370,0.11726
1610.17391,0.11937
1608.68412,0.11231
1607.19433,0.10651
1605.70454,0.10323
1604.21475,0.09985
1602.72496,0.09649
1601.23518,0.09204
1599.74539,0.10005
1598.25560,0.09913
1596.76581,0.07859
1595.27602,0.08841
1593.78623,0.07762
1592.29645,0.09247
1590.80666,0.07451
1589.31687,0.08045
1587.82708,0.08543
1586.33729,0.08869
1584.84750,0.08874
1583.35771,0.08856
1581.86793,0.08294
1580.37814,0.08854
1578.88835,0.06233
1577.39856,0.06300
1575.90877,0.06221
1574.41898,0.05323
1572.92920,0.05994
1571.43941,0.05699
1569.94962,0.05231
1568.45983,0.04766
1566.97004,0.03334
1565.48025,0.03272
1563.99047,0.03883
1562.50068,0.04000
1561.01089,0.05189
1559.52110,0.03496
1558.03131,0.02924
1556.54152,0.03573
1555.05173,0.03951
1553.56195,0.03685
1552.07216,0.04019
1550.58237,0.01693
1549.09258,0.00515
1547.60279,0.01428
1546.11300,0.01597
1544.62322,0.02316
1543.13343,0.03634
1541.64364,0.02070
1540.15385,0.01366
1538.66406,0.00665
1537.17427,0.01017
1535.68448,0.01695
1534.19470,0.01531
1532.70491,0.01343
1531.21512,0.02054
1529.72533,0.02717
1528.23554,0.02786
1526.74575,0.04947
1525.25597,0.05095
1523.76618,0.05246
1522.27639,0.02913
1520.78660,0.03243
1519.29681,0.03152
1517.80702,0.05054
1516.31724,0.04646
1514.82745,0.05185
1513.33766,0.05092
1511.84787,0.05002
1510.35808,0.05374
1508.86829,0.04903
1507.37850,0.06673
1505.88872,0.05387
1504.39893,0.05197
1502.90914,0.06577
1501.41935,0.06417
1499.92956,0.07901
1498.43977,0.08293
1496.94999,0.08365
1495.46020,0.08265
1493.97041,0.09435
1492.48062,0.10982
1490.99083,0.12530
1489.50104,0.14604
1488.01125,0.14528
1486.52147,0.14456
1485.03168,0.16835
1483.54189,0.20361
1482.05210,0.21452
1480.56231,0.24933
1479.07252,0.26303
1477.58274,0.28819
1476.09295,0.29771
1474.60316,0.32019
1473.11337,0.32802
1471.62358,0.33910
1470.13379,0.33977
1468.64401,0.35165
1467.15422,0.38544
1465.66443,0.38705
1464.17464,0.38869
1462.68485,0.42031
1461.19506,0.44227
1459.70527,0.48315
1458.21549,0.53923
1456.72570,0.59781
1455.23591,0.65518
1453.74612,0.72800
1452.25633,0.81999
1450.76654,0.82918
1449.27676,0.82273
1447.78697,0.80338
1446.29718,0.77360
1444.80739,0.75107
1443.31760,0.72855
1441.82781,0.67025
1440.33802,0.62167
1438.84824,0.57387
1437.35845,0.53628
1435.86866,0.54026
1434.37887,0.54923
1432.88908,0.55947
1431.39929,0.59485
1429.90951,0.67503
1428.41972,0.77985
1426.92993,0.85933
1425.44014,0.88910
1423.95035,0.89501
1422.46056,0.90095
1420.97078,0.93029
1419.48099,0.98826
1417.99120,0.97462
1416.50141,0.98290
1415.01162,0.89495
1413.52183,0.83091
1412.03204,0.81712
1410.54226,0.77551
1409.05247,0.73019
1407.56268,0.65456
1406.07289,0.59511
1404.58310,0.55422
1403.09331,0.51335
1401.60353,0.48457
1400.11374,0.43965
1398.62395,0.36193
1397.13416,0.31880
1395.64437,0.26251
1394.15458,0.23535
1392.66479,0.21219
1391.17501,0.16468
1389.68522,0.12690
1388.19543,0.08815
1386.70564,0.08511
1385.21585,0.08209
1383.72606,0.05983
1382.23628,0.05127
1380.74649,0.02483
1379.25670,0.02975
1377.76691,0.01579
1376.27712,0.00509
1374.78733,0.00699
1373.29755,0.01216
1371.80776,0.00665
1370.31797,0.01063
1368.82818,0.01763
1367.33839,0.02464
1365.84860,0.04139
1364.35881,0.03527
1362.86903,0.05580
1361.37924,0.06739
1359.88945,0.09170
1358.39966,0.10732
1356.90987,0.13043
1355.42008,0.17868
1353.93030,0.24114
1352.44051,0.28757
1350.95072,0.33404
1349.46093,0.39109
1347.97114,0.42803
1346.48135,0.49434
1344.99156,0.57684
1343.50178,0.63251
1342.01199,0.68869
1340.52220,0.74665
1339.03241,0.80686
1337.54262,0.86884
1336.05283,0.90287
1334.56305,0.93692
1333.07326,0.95048
1331.58347,0.93497
1330.09368,0.90257
1328.60389,0.91894
1327.11410,0.94429
1325.62432,0.91793
1324.13453,0.87245
1322.64474,0.82426
1321.15495,0.73754
1319.66516,0.72683
1318.17537,0.71614
1316.68558,0.65263
1315.19580,0.61103
1313.70601,0.58810
1312.21622,0.55177
1310.72643,0.52492
1309.23664,0.49312
1307.74685,0.45562
1306.25707,0.40770
1304.76728,0.38443
1303.27749,0.36118
1301.78770,0.32502
1300.29791,0.29387
1298.80812,0.24309
1297.31834,0.20502
1295.82855,0.19259
1294.33876,0.16750
1292.84897,0.15090
1291.35918,0.13034
1289.86939,0.11875
1288.37960,0.10719
1286.88982,0.10163
1285.40003,0.11673
1283.91024,0.10351
1282.42045,0.08583
1280.93066,0.05898
1279.44087,0.04906
1277.95109,0.04315
1276.46130,0.03552
1274.97151,0.03998
1273.48172,0.04446
1271.99193,0.03193
1270.50214,0.01346
1269.01235,0.03555
1267.52257,0.01464
1266.03278,0.02012
1264.54299,0.02115
1263.05320,0.05876
1261.56341,0.05287
1260.07362,0.04701
1258.58384,0.01730
1257.09405,0.01397
1255.60426,0.02435
1254.11447,0.00665
1252.62468,0.02592
1251.13489,0.02184
1249.64511,0.01753
1248.15532,0.03066
1246.66553,0.02752
1245.17574,0.02441
1243.68595,0.00826
1242.19616,0.02743
1240.70637,0.02151
1239.21659,0.01910
1237.72680,0.04829
1236.23701,0.03249
1234.74722,0.03165
1233.25743,0.02871
1231.76764,0.02579
1230.27786,0.02452
1228.78807,0.02527
1227.29828,0.03001
1225.80849,0.03329
1224.31870,0.01795
1222.82891,0.00735
1221.33912,0.02273
1219.84934,0.02607
1218.35955,0.02944
1216.86976,0.04714
1215.37997,0.06361
1213.89018,0.06519
1212.40039,0.09664
1210.91061,0.08359
1209.42082,0.09594
1207.93103,0.08792
1206.44124,0.07992
1204.95145,0.07916
1203.46166,0.07196
1201.97188,0.07697
1200.48209,0.06957
1198.99230,0.05648
1197.50251,0.04366
1196.01272,0.04081
1194.52293,0.03674
1193.03314,0.03270
1191.54336,0.04013
1190.05357,0.02494
1188.56378,0.03789
1187.07399,0.02549
1185.58420,0.02704
1184.09441,0.00773
1182.60463,0.01742
1181.11484,0.02713
1179.62505,0.00665
1178.13526,0.00842
1176.64547,0.00947
1175.15568,0.02348
1173.66589,0.02309
1172.17611,0.02745
1170.68632,0.01704
1169.19653,0.00665
1167.70674,0.02873
1166.21695,0.02770
1164.72716,0.03018
1163.23738,0.04810
1161.74759,0.05486
1160.25780,0.07209
1158.76801,0.07765
1157.27822,0.08324
1155.78843,0.07369
1154.29865,0.07684
1152.80886,0.09742
1151.31907,0.10983
1149.82928,0.11057
1148.33949,0.10660
1146.84970,0.11050
1145.35991,0.11442
1143.87013,0.11029
1142.38034,0.15119
1140.89055,0.15183
1139.40076,0.16344
1137.91097,0.18652
1136.42118,0.22180
1134.93140,0.22130
1133.44161,0.22082
1131.95182,0.24001
1130.46203,0.24182
1128.97224,0.24166
1127.48245,0.23656
1125.99266,0.24143
1124.50288,0.29084
1123.01309,0.28170
1121.52330,0.27259
1120.03351,0.25418
1118.54372,0.24450
1117.05393,0.22540
1115.56415,0.24835
1114.07436,0.23451
1112.58457,0.23612
1111.09478,0.23776
1109.60499,0.23295
1108.11520,0.23290
1106.62542,0.25301
1105.13563,0.25077
1103.64584,0.21845
1102.15605,0.23790
1100.66626,0.23050
1099.17647,0.22314
1097.68668,0.21530
1096.19690,0.21047
1094.70711,0.20342
1093.21732,0.22600
1091.72753,0.21950
1090.23774,0.22298
1088.74795,0.22648
1087.25817,0.20414
1085.76838,0.20222
1084.27859,0.21897
1082.78880,0.18900
1081.29901,0.21003
1079.80922,0.18508
1078.31943,0.19286
1076.82965,0.20067
1075.33986,0.25413
1073.85007,0.27081
1072.36028,0.27136
1070.87049,0.29281
1069.38070,0.31057
1067.89092,0.32722
1066.40113,0.34391
1064.91134,0.38362
1063.42155,0.45768
1061.93176,0.60239
1060.44197,0.67849
1058.95219,0.76058
1057.46240,0.82031
1055.97261,0.88007
1054.48282,0.99183
1052.99303,1.09964
1051.50324,1.14281
1050.01345,1.11214
1048.52367,1.10387
1047.03388,1.09638
1045.54409,1.08892
1044.05430,1.04790
1042.56451,0.97433
1041.07472,0.86249
1039.58494,0.74370
1038.09515,0.67816
1036.60536,0.65207
1035.11557,0.62600
1033.62578,0.52124
1032.13599,0.46426
1030.64620,0.37597
1029.15642,0.31481
1027.66663,0.30117
1026.17684,0.28756
1024.68705,0.24140
1023.19726,0.21068
1021.70747,0.19267
1020.21769,0.16300
1018.72790,0.15324
1017.23811,0.15483
1015.74832,0.15644
1014.25853,0.12960
1012.76874,0.13014
1011.27896,0.12997
1009.78917,0.12782
1008.29938,0.13590
1006.80959,0.12162
1005.31980,0.10737
1003.83001,0.05807
1002.34022,0.02820
1000.85044,0.02919
999.36065,0.03319
997.87086,0.03858
996.38107,0.04400
994.89128,0.05479
993.40149,0.08923
991.91171,0.11723
990.42192,0.12511
988.93213,0.13823
987.44234,0.13771
985.95255,0.13721
984.46276,0.09520
982.97297,0.11539
981.48319,0.10800
979.99340,0.09093
978.50361,0.08048
977.01382,0.07006
975.52403,0.04909
974.03424,0.04655
972.54446,0.02389
971.05467,0.03309
969.56488,0.01570
968.07509,0.02308
966.58530,0.03049
965.09551,0.01516
963.60573,0.02076
962.11594,0.02414
960.62615,0.00665
959.13636,0.01018
957.64657,0.01374
956.15678,0.01918
954.66699,0.02863
953.17721,0.04830
951.68742,0.07173
950.19763,0.06149
948.70784,0.05126
947.21805,0.06929
945.72826,0.08039
944.23848,0.10071
942.74869,0.11085
941.25890,0.11033
939.76911,0.11642
938.27932,0.12254
936.78953,0.15840
935.29974,0.21518
933.80996,0.20011
932.32017,0.19676
930.83038,0.21270
929.34059,0.22866
927.85080,0.23483
926.36101,0.27584
924.87123,0.27485
923.38144,0.32586
921.89165,0.35874
920.40186,0.39164
918.91207,0.50788
917.42228,0.59779
915.93250,0.77626
914.44271,0.96545
912.95292,1.08838
911.46313,1.21134
909.97334,1.38792
908.48355,1.61824
906.99376,1.80954
905.50398,1.85662
904.01419,1.90783
902.52440,1.95906
901.03461,2.00000
899.54482,1.97431
898.05503,1.81435
896.56525,1.61685
895.07546,1.49648
893.58567,1.37614
892.09588,1.15410
890.60609,0.91442
889.11630,0.66955
887.62651,0.50006
886.13673,0.43592
884.64694,0.37181
883.15715,0.29964
881.66736,0.20735
880.17757,0.14268
878.68778,0.13326
877.19800,0.12386
875.70821,0.09434
874.21842,0.07032
872.72863,0.05104
871.23884,0.04995
869.74905,0.05324
868.25927,0.05654
866.76948,0.04035
865.27969,0.06174
863.78990,0.06525
862.30011,0.07177
860.81032,0.08552
859.32053,0.09930
857.83075,0.11883
856.34096,0.14410
854.85117,0.14776
853.36138,0.14895
851.87159,0.16099
850.38180,0.17305
848.89202,0.18999
847.40223,0.21491
845.91244,0.24757
844.42265,0.25314
842.93286,0.25874
841.44307,0.26486
839.95329,0.31403
838.46350,0.32592
836.97371,0.35922
835.48392,0.35698
833.99413,0.35477
832.50434,0.33045
831.01455,0.31959
829.52477,0.28785
828.03498,0.27480
826.54519,0.27085
825.05540,0.26692
823.56561,0.25095
822.07582,0.21611
820.58604,0.20045
819.09625,0.18406
817.60646,0.16770
816.11667,0.18145
814.62688,0.17907
813.13709,0.18317
811.64730,0.18681
810.15752,0.18325
808.66773,0.17972
807.17794,0.17299
805.68815,0.18318
804.19836,0.21430
802.70857,0.20167
801.21879,0.18906
799.72900,0.18568
798.23921,0.14651
796.74942,0.18074
795.25963,0.18589
793.76984,0.19106
792.28006,0.17438
790.79027,0.19179
789.30048,0.23136
787.81069,0.24285
786.32090,0.26792
784.83111,0.29302
783.34132,0.35532
781.85154,0.39179
780.36175,0.43996
778.87196,0.44713
777.38217,0.45432
775.89238,0.46899
774.40259,0.51056
772.91281,0.47853
771.42302,0.45784
769.93323,0.43717
768.44344,0.39079
766.95365,0.33623
765.46386,0.32646
763.97407,0.27493
762.48429,0.25912
760.99450,0.24333
759.50471,0.20182
758.01492,0.17526
756.52513,0.14425
755.03534,0.13752
753.54556,0.13081
752.05577,0.12325
750.56598,0.12069
749.07619,0.10622
747.58640,0.09762
746.09661,0.08904
744.60683,0.05997
743.11704,0.05729
741.62725,0.05737
740.13746,0.04640
738.64767,0.03546
737.15788,0.04681
735.66809,0.02510
734.17831,0.00665
732.68852,0.01586
731.19873,0.02509
729.70894,0.02340
728.21915,0.01801
726.72936,0.01489
725.23958,0.01726
723.74979,0.01194
722.26000,0.00665
720.77021,0.02020
719.28042,0.01339
717.79063,0.02649
716.30084,0.01873
714.81106,0.01100
713.32127,0.01100
711.83148,0.02495
710.34169,0.03121
708.85190,0.03664
707.36211,0.04208
705.87233,0.03350
704.38254,0.03688
702.89275,0.02860
701.40296,0.03813
699.91317,0.04768
698.42338,0.06682
696.93360,0.09495
695.44381,0.08356
693.95402,0.10266
692.46423,0.12179
690.97444,0.13062
689.48465,0.15613
687.99486,0.17247
686.50508,0.18896
685.01529,0.20547
683.52550,0.21045
682.03571,0.22564
680.54592,0.24260
679.05613,0.25399
677.56635,0.26541
676.07656,0.25235
674.58677,0.24156
673.09698,0.23527
671.60719,0.23174
670.11740,0.22823
668.62761,0.19465
667.13783,0.15887
665.64804,0.14586
664.15825,0.13288
662.66846,0.10811
661.17867,0.09132
659.68888,0.04919
658.19910,0.05633
656.70931,0.06349
655.21952,0.04084
653.72973,0.05750
652.23994,0.05752
650.75015,0.06329
649.26037,0.06909
647.77058,0.05079
646.28079,0.04444
644.79100,0.05703
643.30121,0.05944
641.81142,0.06188
640.32163,0.03400
638.83185,0.02505
637.34206,0.01413
635.85227,0.01205
634.36248,0.00999
632.87269,0.03618
631.38290,0.02360
629.89312,0.04511
628.40333,0.02587
626.91354,0.00665
625.42375,0.02573
623.93396,0.02694
622.44417,0.02966
620.95438,0.03240
619.46460,0.03989
617.97481,0.05065
616.48502,0.08654
614.99523,0.10568
613.50544,0.12484
612.01565,0.14514
610.52587,0.15975
609.03608,0.18781
607.54629,0.21391
606.05650,0.24003
604.56671,0.26892
603.07692,0.32742
601.58714,0.32526
600.09735,0.32314
598.60756,0.37574
597.11777,0.42092
595.62798,0.41364
594.13819,0.40378
592.64840,0.39394
591.15862,0.36933
589.66883,0.35071
588.17904,0.31794
586.68925,0.27786
585.19946,0.23780
583.70967,0.19292
582.21989,0.13961
580.73010,0.11082
579.24031,0.08205
577.75052,0.06164
576.26073,0.05469
574.77094,0.04154
573.28115,0.03999
571.79137,0.03845
570.30158,0.06119
568.81179,0.09490
567.32200,0.10800
565.83221,0.12111
564.34242,0.12978
562.85264,0.14269
561.36285,0.17205
559.87306,0.18178
558.38327,0.19154
556.89348,0.19262
555.40369,0.21387
553.91391,0.21065
552.42412,0.20745
550.93433,0.21336
549.44454,0.21705
547.95475,0.21081
546.46496,0.22202
544.97517,0.23324
543.48539,0.27757
541.99560,0.31720
540.50581,0.34143
539.01602,0.36569
537.52623,0.34695
536.03644,0.40334
534.54666,0.44036
533.05687,0.45912
531.56708,0.47791
530.07729,0.50356
528.58750,0.54888
527.09771,0.56215
525.60792,0.57544
524.11814,0.63502
522.62835,0.71028
521.13856,0.71892
519.64877,0.76788
518.15898,0.81686
516.66919,0.87009
515.17941,0.86565
513.68962,0.86484
512.19983,0.86406
510.71004,0.83109
509.22025,0.78546
507.73046,0.70082
506.24068,0.65648
504.75089,0.61218
503.26110,0.50249
501.77131,0.39605
500.28152,0.34896
498.79173,0.30189
497.30194,0.24602
495.81216,0.20833
494.32237,0.17215
492.83258,0.13600
491.34279,0.09814
489.85300,0.06005
488.36321,0.08043
486.87343,0.09946
485.38364,0.11852
483.89385,0.10615
482.40406,0.11345
480.91427,0.11605
479.42448,0.11867
477.93469,0.16136
476.44491,0.17746
474.95512,0.19595
473.46533,0.21446
471.97554,0.21199
470.48575,0.23142
468.99596,0.22850
467.50618,0.21453
466.01639,0.20059
464.52660,0.18830
463.03681,0.14444
461.54702,0.12982
460.05723,0.11524
458.56745,0.06996
457.07766,0.05505
455.58787,0.04937
454.09808,0.04371
452.60829,0.02713
451.11850,0.01033
449.62871,0.00848
448.13893,0.00665
446.64914,0.02300
445.15935,0.02993
443.66956,0.04932
442.17977,0.04461
440.68998,0.03992
439.20020,0.04422
437.71041,0.03859
436.22062,0.04442
434.73083,0.05028
433.24104,0.06835
431.75125,0.04267
430.26146,0.03692
428.77168,0.03119
427.28189,0.05185
425.79210,0.03075
424.30231,0.03877
422.81252,0.04682
421.32273,0.06608
419.83295,0.04061
418.34316,0.04376
416.85337,0.04693
415.36358,0.04739
413.87379,0.03793
412.38400,0.03596
410.89422,0.03401
409.40443,0.04726
407.91464,0.00855
406.42485,0.03054
404.93506,0.03926
403.44527,0.04800
401.95548,0.04569
400.46570,0.04963
398.97591,0.04079
397.48612,0.03197
395.99633,0.01061
394.50654,0.01565
393.01675,0.02058
391.52697,0.02406
390.03718,0.02620
388.54739,0.01792
387.05760,0.01227
385.56781,0.00665
384.07802,0.00584
382.58824,0.02099
381.09845,0.02049
379.60866,0.02001
378.11887,0.01857
376.62908,0.00969
375.13929,0.02172
373.64950,0.03378
372.15972,0.02722
370.66993,0.02540
369.18014,0.02993
367.69035,0.03449
366.20056,0.04106
364.71077,0.08894
363.22099,0.07032
361.73120,0.05173
360.24141,0.02258
358.75162,0.00665
357.26183,0.02034
355.77204,0.03406
354.28225,0.11582
352.79247,0.09539
351.30268,0.08990
349.81289,0.08444
348.32310,0.09418
346.83331,0.09598
345.34352,0.09408
343.85374,0.09220
342.36395,0.07518
340.87416,0.05868
339.38437,0.04743
337.89458,0.03620
336.40479,0.01629
334.91501,0.02849
333.42522,0.02231
331.93543,0.01615
330.44564,0.02470
328.95585,0.03675
327.46606,0.04945
325.97627,0.06217
324.48649,0.04967
322.99670,0.02203
321.50691,0.02669
320.01712,0.03138
318.52733,0.03435
317.03754,0.02640
315.54776,0.05839
314.05797,0.09041
312.56818,0.12681
311.07839,0.11249
309.58860,0.09845
308.09881,0.08444
306.60902,0.05925
305.11924,0.03136
303.62945,0.02563
302.13966,0.00665
300.64987,0.00912
299.16008,0.00665
