1778.52000,0.00530
1777.03021,0.00946
1775.54042,0.00642
1774.05063,0.00509
1772.56085,0.00787
1771.07106,0.01020
1769.58127,0.01255
1768.09148,0.00892
1766.60169,0.00121
1765.11190,0.00556
1763.62212,0.01114
1762.13233,0.00519
1760.64254,0.00264
1759.15275,0.01719
1757.66296,0.00891
1756.17317,0.01004
1754.68339,0.01023
1753.19360,0.01429
1751.70381,0.00947
1750.21402,0.01551
1748.72423,0.00232
1747.23444,0.00542
1745.74465,0.00397
1744.25487,0.01630
1742.76508,0.01687
1741.27529,0.01073
1739.78550,0.00725
1738.29571,0.01171
1736.80592,0.01715
1735.31614,0.01226
1733.82635,0.00957
1732.33656,0.01364
1730.84677,0.01268
1729.35698,0.00958
1727.86719,0.00554
1726.37740,0.00754
1724.88762,0.01197
1723.39783,0.01282
1721.90804,0.00551
1720.41825,0.01002
1718.92846,0.00179
1717.43867,0.00264
1715.94889,0.01370
1714.45910,0.01347
1712.96931,0.00894
1711.47952,0.00756
1709.98973,0.00019
1708.49994,0.00168
1707.01016,0.00343
1705.52037,0.00521
1704.03058,0.00821
1702.54079,0.00498
1701.05100,0.01188
1699.56121,0.00389
1698.07142,0.01205
1696.58164,0.01445
1695.09185,0.01399
1693.60206,0.01259
1692.11227,0.01338
1690.62248,0.01251
1689.13269,0.02105
1687.64291,0.01975
1686.15312,0.01703
1684.66333,0.01121
1683.17354,0.02610
1681.68375,0.03524
1680.19396,0.02781
1678.70417,0.03989
1677.21439,0.04429
1675.72460,0.04872
1674.23481,0.03536
1672.74502,0.02468
1671.25523,0.03712
1669.76544,0.05079
1668.27566,0.05245
1666.78587,0.05486
1665.29608,0.04935
1663.80629,0.05470
1662.31650,0.07017
1660.82671,0.06545
1659.33693,0.08025
1657.84714,0.06837
1656.35735,0.05868
1654.86756,0.06850
1653.37777,0.06343
1651.88798,0.06776
1650.39819,0.05600
1648.90841,0.06231
1647.41862,0.06407
1645.92883,0.07500
1644.43904,0.08595
1642.94925,0.07166
1641.45946,0.08507
1639.96968,0.06987
1638.47989,0.07779
1636.99010,0.07563
1635.50031,0.07759
1634.01052,0.07500
1632.52073,0.08759
1631.03094,0.08889
1629.54116,0.08806
1628.05137,0.08412
1626.56158,0.07828
1625.07179,0.06765
1623.58200,0.06571
1622.09221,0.07270
1620.60243,0.08885
1619.11264,0.08217
1617.62285,0.08851
1616.13306,0.10546
1614.64327,0.08177
1613.15348,0.08409
1611.66370,0.09004
1610.17391,0.09722
1608.68412,0.09432
1607.19433,0.10107
1605.70454,0.09990
1604.21475,0.09587
1602.72496,0.09186
1601.23518,0.07585
1599.74539,0.08320
1598.25560,0.09298
1596.76581,0.07752
1595.27602,0.09505
1593.78623,0.09071
1592.29645,0.08494
1590.80666,0.08450
1589.31687,0.07061
1587.82708,0.08176
1586.33729,0.07778
1584.84750,0.09067
1583.35771,0.09467
1581.86793,0.07705
1580.37814,0.06980
1578.88835,0.06065
1577.39856,0.07294
1575.90877,0.05685
1574.41898,0.06125
1572.92920,0.06278
1571.43941,0.06530
1569.94962,0.05942
1568.45983,0.05357
1566.97004,0.05327
1565.48025,0.03664
1563.99047,0.03374
1562.50068,0.03881
1561.01089,0.03068
1559.52110,0.02882
1558.03131,0.02193
1556.54152,0.02325
1555.05173,0.02627
1553.56195,0.02908
1552.07216,0.01844
1550.58237,0.02876
1549.09258,0.01913
1547.60279,0.01338
1546.11300,0.01655
1544.62322,0.01998
1543.13343,0.01887
1541.64364,0.02669
1540.15385,0.02767
1538.66406,0.02868
1537.17427,0.02406
1535.68448,0.01754
1534.19470,0.02427
1532.70491,0.00264
1531.21512,0.03458
1529.72533,0.02733
1528.23554,0.04777
1526.74575,0.04081
1525.25597,0.05047
1523.76618,0.04981
1522.27639,0.06722
1520.78660,0.05121
1519.29681,0.04630
1517.80702,0.05488
1516.31724,0.06420
1514.82745,0.04805
1513.33766,0.05165
1511.84787,0.05528
1510.35808,0.06470
1508.86829,0.06405
1507.37850,0.06510
1505.88872,0.07460
1504.39893,0.07257
1502.90914,0.06936
1501.41935,0.06859
1499.92956,0.07987
1498.43977,0.09983
1496.94999,0.08517
1495.46020,0.11000
1493.97041,0.11921
1492.48062,0.12435
1490.99083,0.13361
1489.50104,0.15998
1488.01125,0.16195
1486.52147,0.16394
1485.03168,0.17185
1483.54189,0.20337
1482.05210,0.21133
1480.56231,0.22196
1479.07252,0.25499
1477.58274,0.28035
1476.09295,0.26314
1474.60316,0.25896
1473.11337,0.29762
1471.62358,0.31249
1470.13379,0.30332
1468.64401,0.31944
1467.15422,0.33366
1465.66443,0.34333
1464.17464,0.35302
1462.68485,0.39378
1461.19506,0.44707
1459.70527,0.47898
1458.21549,0.54122
1456.72570,0.56187
1455.23591,0.61502
1453.74612,0.66795
1452.25633,0.71056
1450.76654,0.75632
1449.27676,0.75471
1447.78697,0.76083
1446.29718,0.73617
1444.80739,0.73066
1443.31760,0.72518
1441.82781,0.65825
1440.33802,0.57426
1438.84824,0.54058
1437.35845,0.55432
1435.86866,0.53705
1434.37887,0.53448
1432.88908,0.56875
1431.39929,0.60135
1429.90951,0.64072
1428.41972,0.70297
1426.92993,0.77414
1425.44014,0.86820
1423.95035,0.89046
1422.46056,0.91274
1420.97078,0.94432
1419.48099,0.95642
1417.99120,0.96711
1416.50141,0.95569
1415.01162,0.91157
1413.52183,0.87783
1412.03204,0.78275
1410.54226,0.73101
1409.05247,0.64801
1407.56268,0.61387
1406.07289,0.53526
1404.58310,0.50610
1403.09331,0.47698
1401.60353,0.43236
1400.11374,0.38800
1398.62395,0.34607
1397.13416,0.29671
1395.64437,0.26037
1394.15458,0.22958
1392.66479,0.19016
1391.17501,0.15317
1389.68522,0.13280
1388.19543,0.10644
1386.70564,0.09574
1385.21585,0.08507
1383.72606,0.04315
1382.23628,0.04095
1380.74649,0.02578
1379.25670,0.02074
1377.76691,0.02824
1376.27712,0.01314
1374.78733,0.00264
1373.29755,0.00951
1371.80776,0.01473
1370.31797,0.02430
1368.82818,0.02619
1367.33839,0.02811
1365.84860,0.01225
1364.35881,0.02456
1362.86903,0.02728
1361.37924,0.05095
1359.88945,0.07344
1358.39966,0.10486
1356.90987,0.14207
1355.42008,0.18822
1353.93030,0.24160
1352.44051,0.26446
1350.95072,0.28733
1349.46093,0.34897
1347.97114,0.42603
1346.48135,0.50865
1344.99156,0.55665
1343.50178,0.63667
1342.01199,0.69121
1340.52220,0.71594
1339.03241,0.77871
1337.54262,0.82900
1336.05283,0.85934
1334.56305,0.88970
1333.07326,0.92682
1331.58347,0.93029
1330.09368,0.87146
1328.60389,0.85067
1327.11410,0.83809
1325.62432,0.84622
1324.13453,0.81300
1322.64474,0.79808
1321.15495,0.71318
1319.66516,0.69434
1318.17537,0.67553
1316.68558,0.62654
1315.19580,0.58360
1313.70601,0.56883
1312.21622,0.52353
1310.72643,0.49509
1309.23664,0.44960
1307.74685,0.44407
1306.25707,0.40800
1304.76728,0.38460
1303.27749,0.36122
1301.78770,0.32234
1300.29791,0.29744
1298.80812,0.25043
1297.31834,0.19166
1295.82855,0.16612
1294.33876,0.14156
1292.84897,0.12183
1291.35918,0.09347
1289.86939,0.09004
1288.37960,0.08663
1286.88982,0.09732
1285.40003,0.08012
1283.91024,0.08412
1282.42045,0.09633
1280.93066,0.07247
1279.44087,0.05561
1277.95109,0.03324
1276.46130,0.04386
1274.97151,0.03742
1273.48172,0.03101
1271.99193,0.03737
1270.50214,0.02282
1269.01235,0.03260
1267.52257,0.02147
1266.03278,0.01301
1264.54299,0.00000
1263.05320,0.01300
1261.56341,0.01159
1260.07362,0.01021
1258.58384,0.02112
1257.09405,0.00366
1255.60426,0.00500
1254.11447,0.00515
1252.62468,0.01351
1251.13489,0.01059
1249.64511,0.00264
1248.15532,0.01506
1246.66553,0.01584
1245.17574,0.01664
1243.68595,0.00868
1242.19616,0.02914
1240.70637,0.01185
1239.21659,0.02105
1237.72680,0.01848
1236.23701,0.02869
1234.74722,0.02618
1233.25743,0.01767
1231.76764,0.00919
1230.27786,0.00530
1228.78807,0.00264
1227.29828,0.01168
1225.80849,0.02386
1224.31870,0.03271
1222.82891,0.03436
1221.33912,0.05697
1219.84934,0.05674
1218.35955,0.05654
1216.86976,0.05324
1215.37997,0.05309
1213.89018,0.04983
1212.40039,0.07451
1210.91061,0.06649
1209.42082,0.07414
1207.93103,0.06737
1206.44124,0.06063
1204.95145,0.06161
1203.46166,0.06718
1201.97188,0.07399
1200.48209,0.06734
1198.99230,0.05302
1197.50251,0.07289
1196.01272,0.04683
1194.52293,0.04136
1193.03314,0.03592
1191.54336,0.03592
1190.05357,0.02944
1188.56378,0.02588
1187.07399,0.01271
1185.58420,0.01497
1184.09441,0.02231
1182.60463,0.02149
1181.11484,0.02069
1179.62505,0.00500
1178.13526,0.01652
1176.64547,0.01556
1175.15568,0.01197
1173.66589,0.00264
1172.17611,0.02062
1170.68632,0.01445
1169.19653,0.00831
1167.70674,0.01410
1166.21695,0.02616
1164.72716,0.03585
1163.23738,0.02968
1161.74759,0.03508
1160.25780,0.07612
1158.76801,0.08338
1157.27822,0.09066
1155.78843,0.07932
1154.29865,0.09230
1152.80886,0.10723
1151.31907,0.09380
1149.82928,0.10445
1148.33949,0.12788
1146.84970,0.13256
1145.35991,0.13727
1143.87013,0.13454
1142.38034,0.13834
1140.89055,0.13903
1139.40076,0.17776
1137.91097,0.16912
1136.42118,0.17902
1134.93140,0.19461
1133.44161,0.21022
1131.95182,0.24522
1130.46203,0.24584
1128.97224,0.26140
1127.48245,0.23585
1125.99266,0.24857
1124.50288,0.24038
1123.01309,0.23595
1121.52330,0.23155
1120.03351,0.26722
1118.54372,0.24566
1117.05393,0.24578
1115.56415,0.24207
1114.07436,0.24007
1112.58457,0.22703
1111.09478,0.21401
1109.60499,0.22123
1108.11520,0.22967
1106.62542,0.22346
1105.13563,0.22233
1103.64584,0.20558
1102.15605,0.21316
1100.66626,0.21054
1099.17647,0.20794
1097.68668,0.21487
1096.19690,0.20715
1094.70711,0.21172
1093.21732,0.19370
1091.72753,0.19423
1090.23774,0.19563
1088.74795,0.19705
1087.25817,0.20174
1085.76838,0.20044
1084.27859,0.20927
1082.78880,0.21452
1081.29901,0.20848
1079.80922,0.21498
1078.31943,0.21080
1076.82965,0.20664
1075.33986,0.22837
1073.85007,0.22390
1072.36028,0.21921
1070.87049,0.25208
1069.38070,0.29339
1067.89092,0.31849
1066.40113,0.34362
1064.91134,0.39439
1063.42155,0.48031
1061.93176,0.56265
1060.44197,0.64790
1058.95219,0.71272
1057.46240,0.76205
1055.97261,0.81140
1054.48282,0.90324
1052.99303,0.99295
1051.50324,0.98691
1050.01345,0.95203
1048.52367,1.02040
1047.03388,0.99266
1045.54409,0.96495
1044.05430,0.91838
1042.56451,0.87809
1041.07472,0.81112
1039.58494,0.70471
1038.09515,0.60915
1036.60536,0.56799
1035.11557,0.52686
1033.62578,0.47637
1032.13599,0.41339
1030.64620,0.34851
1029.15642,0.28390
1027.66663,0.26586
1026.17684,0.24785
1024.68705,0.19967
1023.19726,0.19410
1021.70747,0.14958
1020.21769,0.14646
1018.72790,0.13736
1017.23811,0.12827
1015.74832,0.11922
1014.25853,0.09839
1012.76874,0.11633
1011.27896,0.09964
1009.78917,0.08707
1008.29938,0.06851
1006.80959,0.05635
1005.31980,0.04422
1003.83001,0.03319
1002.34022,0.01713
1000.85044,0.04224
999.36065,0.03874
997.87086,0.04140
996.38107,0.04409
994.89128,0.06063
993.40149,0.08370
991.91171,0.10823
990.42192,0.12244
988.93213,0.12296
987.44234,0.12977
985.95255,0.13659
984.46276,0.14729
982.97297,0.13732
981.48319,0.10597
979.99340,0.08209
978.50361,0.07388
977.01382,0.06570
975.52403,0.04695
974.03424,0.03881
972.54446,0.03310
971.05467,0.00264
969.56488,0.00839
968.07509,0.00911
966.58530,0.00985
965.09551,0.01086
963.60573,0.01743
962.11594,0.01416
960.62615,0.00778
959.13636,0.00456
957.64657,0.00136
956.15678,0.00109
954.66699,0.00084
953.17721,0.02095
951.68742,0.02375
950.19763,0.03513
948.70784,0.04653
947.21805,0.06336
945.72826,0.05881
944.23848,0.08532
942.74869,0.08562
941.25890,0.12084
939.76911,0.13335
938.27932,0.14588
936.78953,0.15182
935.29974,0.15634
933.80996,0.17916
932.32017,0.20731
930.83038,0.22381
929.34059,0.24034
927.85080,0.25581
926.36101,0.27298
924.87123,0.29427
923.38144,0.34061
921.89165,0.37037
920.40186,0.40015
918.91207,0.51898
917.42228,0.65396
915.93250,0.82192
914.44271,0.98557
912.95292,1.11147
911.46313,1.23740
909.97334,1.44155
908.48355,1.65655
906.99376,1.82128
905.50398,1.93552
904.01419,1.94175
902.52440,1.94801
901.03461,2.00000
899.54482,1.94736
898.05503,1.83195
896.56525,1.61767
895.07546,1.49545
893.58567,1.37325
892.09588,1.12609
890.60609,0.89026
889.11630,0.66191
887.62651,0.49758
886.13673,0.43133
884.64694,0.36509
883.15715,0.28770
881.66736,0.21513
880.17757,0.14982
878.68778,0.12398
877.19800,0.09817
875.70821,0.09380
874.21842,0.05913
872.72863,0.03291
871.23884,0.04882
869.74905,0.04153
868.25927,0.03427
866.76948,0.04689
865.27969,0.05880
863.78990,0.05823
862.30011,0.07573
860.81032,0.08447
859.32053,0.09324
857.83075,0.10672
856.34096,0.10915
854.85117,0.14939
853.36138,0.14418
851.87159,0.15499
850.38180,0.16582
848.89202,0.19292
847.40223,0.23448
845.91244,0.24720
844.42265,0.25464
842.93286,0.26211
841.44307,0.27538
839.95329,0.29661
838.46350,0.28779
836.97371,0.29583
835.48392,0.31329
833.99413,0.33077
832.50434,0.31579
831.01455,0.31551
829.52477,0.28518
828.03498,0.22962
826.54519,0.21029
825.05540,0.19098
823.56561,0.19539
822.07582,0.20320
820.58604,0.19010
819.09625,0.18485
817.60646,0.17961
816.11667,0.14349
814.62688,0.16922
813.13709,0.15817
811.64730,0.16471
810.15752,0.17367
808.66773,0.18266
807.17794,0.15053
805.68815,0.16534
804.19836,0.17537
802.70857,0.18469
801.21879,0.19405
799.72900,0.19115
798.23921,0.16975
796.74942,0.13972
795.25963,0.14929
793.76984,0.15888
792.28006,0.17078
790.79027,0.18656
789.30048,0.18239
787.81069,0.21554
786.32090,0.24125
784.83111,0.26699
783.34132,0.31248
781.85154,0.34934
780.36175,0.38886
778.87196,0.40111
777.38217,0.41337
775.89238,0.45297
774.40259,0.48345
772.91281,0.45453
771.42302,0.43321
769.93323,0.41191
768.44344,0.36646
766.95365,0.29769
765.46386,0.25373
763.97407,0.23265
762.48429,0.21244
760.99450,0.19225
759.50471,0.14815
758.01492,0.12404
756.52513,0.11896
755.03534,0.10934
753.54556,0.09973
752.05577,0.08968
750.56598,0.06930
749.07619,0.07493
747.58640,0.06903
746.09661,0.06316
744.60683,0.05323
743.11704,0.02695
741.62725,0.01779
740.13746,0.02116
738.64767,0.02455
737.15788,0.02099
735.66809,0.01457
734.17831,0.00264
732.68852,0.00237
731.19873,0.00212
729.70894,0.01296
728.21915,0.00746
726.72936,0.00727
725.23958,0.01072
723.74979,0.00758
722.26000,0.00446
720.77021,0.00546
719.28042,0.00264
717.79063,0.00858
716.30084,0.00985
714.81106,0.01114
713.32127,0.00825
711.83148,0.02151
710.34169,0.02324
708.85190,0.01958
707.36211,0.01594
705.87233,0.02688
704.38254,0.04459
702.89275,0.03946
701.40296,0.03689
699.91317,0.03434
698.42338,0.06273
696.93360,0.07165
695.44381,0.08854
693.95402,0.08861
692.46423,0.08871
690.97444,0.13334
689.48465,0.13204
687.99486,0.15242
686.50508,0.16163
685.01529,0.17087
683.52550,0.20720
682.03571,0.21637
680.54592,0.23423
679.05613,0.24753
677.56635,0.26086
676.07656,0.27446
674.58677,0.25680
673.09698,0.21246
671.60719,0.19028
670.11740,0.16813
668.62761,0.15802
667.13783,0.16503
665.64804,0.13717
664.15825,0.10934
662.66846,0.08105
661.17867,0.08815
659.68888,0.07242
658.19910,0.05972
656.70931,0.04705
655.21952,0.02970
653.72973,0.03548
652.23994,0.05885
650.75015,0.05855
649.26037,0.05826
647.77058,0.06366
646.28079,0.04382
644.79100,0.03097
643.30121,0.03729
641.81142,0.04362
640.32163,0.03639
638.83185,0.02797
637.34206,0.01573
635.85227,0.00917
634.36248,0.00264
632.87269,0.02265
631.38290,0.01574
629.89312,0.00115
628.40333,0.00631
626.91354,0.01150
625.42375,0.01816
623.93396,0.01955
622.44417,0.02349
620.95438,0.02745
619.46460,0.04865
617.97481,0.04797
616.48502,0.04779
614.99523,0.07230
613.50544,0.09684
612.01565,0.11695
610.52587,0.16956
609.03608,0.19814
607.54629,0.21303
606.05650,0.22795
604.56671,0.28860
603.07692,0.32930
601.58714,0.34537
600.09735,0.36146
598.60756,0.39575
597.11777,0.42236
595.62798,0.42060
594.13819,0.41201
592.64840,0.40344
591.15862,0.36374
589.66883,0.31083
588.17904,0.28658
586.68925,0.25465
585.19946,0.22274
583.70967,0.17258
582.21989,0.11498
580.73010,0.10240
579.24031,0.08984
577.75052,0.06912
576.26073,0.08332
574.77094,0.05231
573.28115,0.05633
571.79137,0.06037
570.30158,0.05157
568.81179,0.07406
567.32200,0.08684
565.83221,0.09964
564.34242,0.13497
562.85264,0.15564
561.36285,0.16526
559.87306,0.17876
558.38327,0.19229
556.89348,0.20079
555.40369,0.20305
553.91391,0.21196
552.42412,0.22089
550.93433,0.24103
549.44454,0.23209
547.95475,0.23327
546.46496,0.23785
544.97517,0.24245
543.48539,0.26776
541.99560,0.27169
540.50581,0.31017
539.01602,0.34867
537.52623,0.37793
536.03644,0.40602
534.54666,0.40502
533.05687,0.43495
531.56708,0.46492
530.07729,0.51908
528.58750,0.59974
527.09771,0.61570
525.60792,0.63168
524.11814,0.70928
522.62835,0.74529
521.13856,0.78853
519.64877,0.82482
518.15898,0.86114
516.66919,0.89988
515.17941,0.89438
513.68962,0.88458
512.19983,0.87480
510.71004,0.83785
509.22025,0.78385
507.73046,0.68873
506.24068,0.65113
504.75089,0.61356
503.26110,0.50480
501.77131,0.42445
500.28152,0.36422
498.79173,0.30401
497.30194,0.25525
495.81216,0.20604
494.32237,0.19198
492.83258,0.17794
491.34279,0.11316
489.85300,0.08666
488.36321,0.06283
486.87343,0.06345
485.38364,0.06409
483.89385,0.09206
482.40406,0.11717
480.91427,0.13015
479.42448,0.14316
477.93469,0.17628
476.44491,0.18609
474.95512,0.19424
473.46533,0.20241
471.97554,0.22288
470.48575,0.20704
468.99596,0.21408
467.50618,0.21513
466.01639,0.21621
464.52660,0.16486
463.03681,0.09669
461.54702,0.09399
460.05723,0.09132
458.56745,0.07351
457.07766,0.05163
455.58787,0.03712
454.09808,0.02263
452.60829,0.02128
451.11850,0.01562
449.62871,0.01071
448.13893,0.00582
446.64914,0.00264
445.15935,0.01989
443.66956,0.02562
442.17977,0.03028
440.68998,0.03498
439.20020,0.04824
437.71041,0.05911
436.22062,0.04896
434.73083,0.03883
433.24104,0.04112
431.75125,0.03261
430.26146,0.04349
428.77168,0.05439
427.28189,0.06303
425.79210,0.03969
424.30231,0.03250
422.81252,0.02534
421.32273,0.04226
419.83295,0.02816
418.34316,0.02780
416.85337,0.02747
415.36358,0.02789
413.87379,0.04108
412.38400,0.04791
410.89422,0.05478
409.40443,0.04518
407.91464,0.04428
406.42485,0.03617
404.93506,0.03315
403.44527,0.03015
401.95548,0.01514
400.46570,0.02205
398.97591,0.02514
397.48612,0.02825
395.99633,0.01671
394.50654,0.03022
393.01675,0.03027
391.52697,0.03035
390.03718,0.02589
388.54739,0.03619
387.05760,0.03485
385.56781,0.03353
384.07802,0.02490
382.58824,0.00859
381.09845,0.00734
379.60866,0.00612
378.11887,0.00264
376.62908,0.00188
375.13929,0.00967
373.64950,0.01749
372.15972,0.01041
370.66993,0.05172
369.18014,0.04265
367.69035,0.03360
366.20056,0.02480
364.71077,0.02541
363.22099,0.03025
361.73120,0.03512
360.24141,0.04927
358.75162,0.05334
357.26183,0.04878
355.77204,0.04424
354.28225,0.04093
352.79247,0.06483
351.30268,0.08021
349.81289,0.09562
348.32310,0.08182
346.83331,0.08200
345.34352,0.06993
343.85374,0.05788
342.36395,0.03841
340.87416,0.02232
339.38437,0.01399
337.89458,0.00569
336.40479,0.01294
334.91501,0.00264
333.42522,0.00821
331.93543,0.01380
330.44564,0.01977
328.95585,0.03179
327.46606,0.03529
325.97627,0.03881
324.48649,0.04825
322.99670,0.03101
321.50691,0.03870
320.01712,0.04641
318.52733,0.06630
317.03754,0.09366
315.54776,0.09255
314.05797,0.09145
312.56818,0.11312
311.07839,0.15237
309.58860,0.12741
308.09881,0.10247
306.60902,0.09392
305.11924,0.07770
303.62945,0.04068
302.13966,0.00369
300.64987,0.01061
299.16008,0.00264
