1778.52000,0.00359
1777.03021,0.00426
1775.54042,0.00471
1774.05063,0.00496
1772.56085,0.00994
1771.07106,0.01071
1769.58127,0.01197
1768.09148,0.01349
1766.60169,0.00372
1765.11190,0.00741
1763.62212,0.00099
1762.13233,0.00167
1760.64254,0.00425
1759.15275,0.01064
1757.66296,0.00432
1756.17317,0.00816
1754.68339,0.00000
1753.19360,0.00318
1751.70381,0.00238
1750.21402,0.00302
1748.72423,0.00251
1747.23444,0.00485
1745.74465,0.00792
1744.25487,0.01456
1742.76508,0.01296
1741.27529,0.00432
1739.78550,0.00580
1738.29571,0.00873
1736.80592,0.02299
1735.31614,0.02290
1733.82635,0.02260
1732.33656,0.00982
1730.84677,0.01735
1729.35698,0.01853
1727.86719,0.01078
1726.37740,0.02216
1724.88762,0.01516
1723.39783,0.01338
1721.90804,0.00432
1720.41825,0.02624
1718.92846,0.00716
1717.43867,0.01970
1715.94889,0.02496
1714.45910,0.02010
1712.96931,0.02541
1711.47952,0.00409
1709.98973,0.00709
1708.49994,0.01483
1707.01016,0.01045
1705.52037,0.00609
1704.03058,0.01980
1702.54079,0.01255
1701.05100,0.02630
1699.56121,0.03844
1698.07142,0.02630
1696.58164,0.01868
1695.09185,0.02829
1693.60206,0.03675
1692.11227,0.02684
1690.62248,0.04667
1689.13269,0.03940
1687.64291,0.03640
1686.15312,0.04923
1684.66333,0.04557
1683.17354,0.05751
1681.68375,0.05107
1680.19396,0.05221
1678.70417,0.04959
1677.21439,0.06870
1675.72460,0.08076
1674.23481,0.06737
1672.74502,0.06415
1671.25523,0.07463
1669.76544,0.08325
1668.27566,0.09991
1666.78587,0.09443
1665.29608,0.09251
1663.80629,0.08284
1662.31650,0.09559
1660.82671,0.11214
1659.33693,0.10466
1657.84714,0.10900
1656.35735,0.08624
1654.86756,0.09463
1653.37777,0.09268
1651.88798,0.09570
1650.39819,0.09025
1648.90841,0.08719
1647.41862,0.08557
1645.92883,0.07997
1644.43904,0.07439
1642.94925,0.07991
1641.45946,0.09820
1639.96968,0.09199
1638.47989,0.09971
1636.99010,0.07963
1635.50031,0.09047
1634.01052,0.08554
1632.52073,0.10209
1631.03094,0.10310
1629.54116,0.10177
1628.05137,0.09293
1626.56158,0.08670
1625.07179,0.07861
1623.58200,0.07668
1622.09221,0.09671
1620.60243,0.10803
1619.11264,0.10381
1617.62285,0.09868
1616.13306,0.09428
1614.64327,0.09768
1613.15348,0.09805
1611.66370,0.09938
1610.17391,0.10639
1608.68412,0.11084
1607.19433,0.12616
1605.70454,0.10943
1604.21475,0.09992
1602.72496,0.09044
1601.23518,0.07992
1599.74539,0.08663
1598.25560,0.08512
1596.76581,0.10345
1595.27602,0.10599
1593.78623,0.11918
1592.29645,0.09961
1590.80666,0.09091
1589.31687,0.07422
1587.82708,0.07123
1586.33729,0.08077
1584.84750,0.10306
1583.35771,0.09826
1581.86793,0.08806
1580.37814,0.08520
1578.88835,0.07906
1577.39856,0.07200
1575.90877,0.08289
1574.41898,0.07847
1572.92920,0.06299
1571.43941,0.06004
1569.94962,0.06136
1568.45983,0.06270
1566.97004,0.04379
1565.48025,0.04424
1563.99047,0.03198
1562.50068,0.02493
1561.01089,0.03961
1559.52110,0.05195
1558.03131,0.04261
1556.54152,0.03472
1555.05173,0.02521
1553.56195,0.04472
1552.07216,0.04445
1550.58237,0.05128
1549.09258,0.03360
1547.60279,0.01761
1546.11300,0.01130
1544.62322,0.00432
1543.13343,0.02796
1541.64364,0.02073
1540.15385,0.01659
1538.66406,0.01248
1537.17427,0.02349
1535.68448,0.02060
1534.19470,0.01680
1532.70491,0.00925
1531.21512,0.00432
1529.72533,0.03281
1528.23554,0.03492
1526.74575,0.04107
1525.25597,0.03686
1523.76618,0.06923
1522.27639,0.05540
1520.78660,0.04915
1519.29681,0.05258
1517.80702,0.04402
1516.31724,0.04562
1514.82745,0.04630
1513.33766,0.04842
1511.84787,0.05057
1510.35808,0.07113
1508.86829,0.06107
1507.37850,0.06282
1505.88872,0.07119
1504.39893,0.05389
1502.90914,0.06066
1501.41935,0.04152
1499.92956,0.07075
1498.43977,0.07336
1496.94999,0.07151
1495.46020,0.08855
1493.97041,0.10349
1492.48062,0.13072
1490.99083,0.12236
1489.50104,0.13054
1488.01125,0.13332
1486.52147,0.13612
1485.03168,0.13400
1483.54189,0.16067
1482.05210,0.16378
1480.56231,0.19074
1479.07252,0.20569
1477.58274,0.23011
1476.09295,0.22059
1474.60316,0.23632
1473.11337,0.27260
1471.62358,0.26622
1470.13379,0.26340
1468.64401,0.26508
1467.15422,0.29486
1465.66443,0.30249
1464.17464,0.31014
1462.68485,0.36145
1461.19506,0.39486
1459.70527,0.42877
1458.21549,0.49005
1456.72570,0.54169
1455.23591,0.58511
1453.74612,0.63114
1452.25633,0.69135
1450.76654,0.71502
1449.27676,0.73189
1447.78697,0.72190
1446.29718,0.70367
1444.80739,0.71637
1443.31760,0.72909
1441.82781,0.63854
1440.33802,0.58268
1438.84824,0.53039
1437.35845,0.54062
1435.86866,0.51172
1434.37887,0.52388
1432.88908,0.54833
1431.39929,0.58577
1429.90951,0.64234
1428.41972,0.68785
1426.92993,0.77819
1425.44014,0.85818
1423.95035,0.88667
1422.46056,0.91518
1420.97078,0.94478
1419.48099,0.95577
1417.99120,0.97976
1416.50141,0.94529
1415.01162,0.91532
1413.52183,0.87052
1412.03204,0.81679
1410.54226,0.75105
1409.05247,0.67237
1407.56268,0.62720
1406.07289,0.56437
1404.58310,0.52821
1403.09331,0.49208
1401.60353,0.45880
1400.11374,0.39913
1398.62395,0.35788
1397.13416,0.35156
1395.64437,0.25919
1394.15458,0.24089
1392.66479,0.22168
1391.17501,0.17725
1389.68522,0.14959
1388.19543,0.11654
1386.70564,0.10119
1385.21585,0.08587
1383.72606,0.07128
1382.23628,0.02276
1380.74649,0.02874
1379.25670,0.01988
1377.76691,0.02520
1376.27712,0.01711
1374.78733,0.00432
1373.29755,0.01969
1371.80776,0.01905
1370.31797,0.02457
1368.82818,0.02952
1367.33839,0.03450
1365.84860,0.03184
1364.35881,0.03486
1362.86903,0.05607
1361.37924,0.05278
1359.88945,0.10162
1358.39966,0.12903
1356.90987,0.16213
1355.42008,0.18771
1353.93030,0.24750
1352.44051,0.27737
1350.95072,0.30726
1349.46093,0.40415
1347.97114,0.46145
1346.48135,0.54519
1344.99156,0.62494
1343.50178,0.70424
1342.01199,0.76376
1340.52220,0.77001
1339.03241,0.84185
1337.54262,0.86748
1336.05283,0.91696
1334.56305,0.96646
1333.07326,0.98911
1331.58347,0.96815
1330.09368,0.92812
1328.60389,0.89707
1327.11410,0.90991
1325.62432,0.92560
1324.13453,0.89605
1322.64474,0.84340
1321.15495,0.80823
1319.66516,0.76495
1318.17537,0.72170
1316.68558,0.65854
1315.19580,0.63857
1313.70601,0.59409
1312.21622,0.56048
1310.72643,0.49695
1309.23664,0.49500
1307.74685,0.46100
1306.25707,0.40320
1304.76728,0.37373
1303.27749,0.34428
1301.78770,0.33820
1300.29791,0.28239
1298.80812,0.25939
1297.31834,0.21707
1295.82855,0.14601
1294.33876,0.15208
1292.84897,0.12375
1291.35918,0.10441
1289.86939,0.10678
1288.37960,0.10918
1286.88982,0.09227
1285.40003,0.10958
1283.91024,0.09979
1282.42045,0.09851
1280.93066,0.07274
1279.44087,0.05053
1277.95109,0.03801
1276.46130,0.04014
1274.97151,0.04123
1273.48172,0.04234
1271.99193,0.03134
1270.50214,0.03592
1269.01235,0.03582
1267.52257,0.03078
1266.03278,0.02341
1264.54299,0.00404
1263.05320,0.01512
1261.56341,0.02009
1260.07362,0.02508
1258.58384,0.02538
1257.09405,0.01722
1255.60426,0.00554
1254.11447,0.01252
1252.62468,0.02047
1251.13489,0.03693
1249.64511,0.03149
1248.15532,0.02795
1246.66553,0.03435
1245.17574,0.04077
1243.68595,0.02788
1242.19616,0.02421
1240.70637,0.03683
1239.21659,0.02543
1237.72680,0.02184
1236.23701,0.03996
1234.74722,0.02557
1233.25743,0.02134
1231.76764,0.01713
1230.27786,0.03111
1228.78807,0.00432
1227.29828,0.01271
1225.80849,0.03480
1224.31870,0.04489
1222.82891,0.04062
1221.33912,0.03638
1219.84934,0.03947
1218.35955,0.04258
1216.86976,0.05185
1215.37997,0.05926
1213.89018,0.07495
1212.40039,0.06826
1210.91061,0.07150
1209.42082,0.08207
1207.93103,0.06767
1206.44124,0.05330
1204.95145,0.05734
1203.46166,0.04514
1201.97188,0.05324
1200.48209,0.05218
1198.99230,0.05302
1197.50251,0.07629
1196.01272,0.06586
1194.52293,0.05935
1193.03314,0.05287
1191.54336,0.03214
1190.05357,0.01780
1188.56378,0.01434
1187.07399,0.02670
1185.58420,0.01621
1184.09441,0.04465
1182.60463,0.02867
1181.11484,0.01271
1179.62505,0.03039
1178.13526,0.03181
1176.64547,0.01345
1175.15568,0.00432
1173.66589,0.02130
1172.17611,0.03313
1170.68632,0.02658
1169.19653,0.02006
1167.70674,0.04256
1166.21695,0.02996
1164.72716,0.03695
1163.23738,0.03195
1161.74759,0.05668
1160.25780,0.07530
1158.76801,0.08003
1157.27822,0.08479
1155.78843,0.08392
1154.29865,0.10217
1152.80886,0.07611
1151.31907,0.08686
1149.82928,0.12877
1148.33949,0.14099
1146.84970,0.13366
1145.35991,0.12636
1143.87013,0.12733
1142.38034,0.14083
1140.89055,0.16803
1139.40076,0.18865
1137.91097,0.19420
1136.42118,0.19954
1134.93140,0.22283
1133.44161,0.24615
1131.95182,0.24543
1130.46203,0.28530
1128.97224,0.29030
1127.48245,0.26348
1125.99266,0.25791
1124.50288,0.24742
1123.01309,0.26171
1121.52330,0.27602
1120.03351,0.28329
1118.54372,0.26723
1117.05393,0.26016
1115.56415,0.25453
1114.07436,0.24091
1112.58457,0.24488
1111.09478,0.24887
1109.60499,0.22943
1108.11520,0.26684
1106.62542,0.25853
1105.13563,0.27265
1103.64584,0.23184
1102.15605,0.22620
1100.66626,0.22483
1099.17647,0.22348
1097.68668,0.23890
1096.19690,0.21331
1094.70711,0.23043
1093.21732,0.19451
1091.72753,0.22843
1090.23774,0.22345
1088.74795,0.21850
1087.25817,0.19778
1085.76838,0.18675
1084.27859,0.18447
1082.78880,0.19778
1081.29901,0.20357
1079.80922,0.18297
1078.31943,0.19116
1076.82965,0.19938
1075.33986,0.18098
1073.85007,0.20505
1072.36028,0.21594
1070.87049,0.24407
1069.38070,0.26632
1067.89092,0.28625
1066.40113,0.30620
1064.91134,0.32923
1063.42155,0.40206
1061.93176,0.48245
1060.44197,0.54282
1058.95219,0.61525
1057.46240,0.67166
1055.97261,0.72810
1054.48282,0.81192
1052.99303,0.87454
1051.50324,0.87799
1050.01345,0.90104
1048.52367,0.89889
1047.03388,0.88520
1045.54409,0.87154
1044.05430,0.86238
1042.56451,0.81646
1041.07472,0.75830
1039.58494,0.68979
1038.09515,0.58145
1036.60536,0.57077
1035.11557,0.56011
1033.62578,0.51764
1032.13599,0.44925
1030.64620,0.35967
1029.15642,0.30383
1027.66663,0.28209
1026.17684,0.26038
1024.68705,0.20533
1023.19726,0.20076
1021.70747,0.15943
1020.21769,0.15067
1018.72790,0.13533
1017.23811,0.14466
1015.74832,0.15401
1014.25853,0.13875
1012.76874,0.12375
1011.27896,0.16725
1009.78917,0.14758
1008.29938,0.09067
1006.80959,0.08072
1005.31980,0.07079
1003.83001,0.04934
1002.34022,0.03663
1000.85044,0.03008
999.36065,0.03581
997.87086,0.03650
996.38107,0.03722
994.89128,0.03477
993.40149,0.05664
991.91171,0.07076
990.42192,0.06225
988.93213,0.07547
987.44234,0.08046
985.95255,0.08548
984.46276,0.09429
982.97297,0.08780
981.48319,0.06601
979.99340,0.04754
978.50361,0.04855
977.01382,0.04959
975.52403,0.04275
974.03424,0.02981
972.54446,0.01807
971.05467,0.00824
969.56488,0.00551
968.07509,0.00481
966.58530,0.00413
965.09551,0.01685
963.60573,0.02889
962.11594,0.03859
960.62615,0.04078
959.13636,0.02589
957.64657,0.01102
956.15678,0.00432
954.66699,0.02222
953.17721,0.02435
951.68742,0.03168
950.19763,0.04683
948.70784,0.06200
947.21805,0.06965
945.72826,0.09053
944.23848,0.09894
942.74869,0.10029
941.25890,0.11087
939.76911,0.12431
938.27932,0.13776
936.78953,0.15879
935.29974,0.17466
933.80996,0.21720
932.32017,0.24349
930.83038,0.24410
929.34059,0.24473
927.85080,0.24870
926.36101,0.26235
924.87123,0.28877
923.38144,0.31898
921.89165,0.33884
920.40186,0.35873
918.91207,0.46519
917.42228,0.60468
915.93250,0.73878
914.44271,0.91582
912.95292,1.02686
911.46313,1.13792
909.97334,1.36220
908.48355,1.57943
906.99376,1.75778
905.50398,1.88026
904.01419,1.92247
902.52440,1.96470
901.03461,2.00000
899.54482,1.96812
898.05503,1.84500
896.56525,1.66719
895.07546,1.52596
893.58567,1.38476
892.09588,1.10185
890.60609,0.86000
889.11630,0.65590
887.62651,0.48862
886.13673,0.41227
884.64694,0.33595
883.15715,0.24939
881.66736,0.18055
880.17757,0.13012
878.68778,0.10212
877.19800,0.07415
875.70821,0.06554
874.21842,0.03384
872.72863,0.03353
871.23884,0.01273
869.74905,0.01471
868.25927,0.01672
866.76948,0.02358
865.27969,0.00666
863.78990,0.01640
862.30011,0.02829
860.81032,0.03820
859.32053,0.04814
857.83075,0.07426
856.34096,0.07422
854.85117,0.08246
853.36138,0.09686
851.87159,0.09537
850.38180,0.09390
848.89202,0.10342
847.40223,0.12876
845.91244,0.14211
844.42265,0.14993
842.93286,0.15778
841.44307,0.18370
839.95329,0.18559
838.46350,0.18938
836.97371,0.23047
835.48392,0.23337
833.99413,0.23630
832.50434,0.21638
831.01455,0.22856
829.52477,0.17732
828.03498,0.13272
826.54519,0.13553
825.05540,0.13838
823.56561,0.09903
822.07582,0.10570
820.58604,0.11286
819.09625,0.10035
817.60646,0.08787
816.11667,0.09440
814.62688,0.08563
813.13709,0.09126
811.64730,0.09362
810.15752,0.09129
808.66773,0.08898
807.17794,0.07821
805.68815,0.08326
804.19836,0.09399
802.70857,0.10817
801.21879,0.12238
799.72900,0.09758
798.23921,0.09969
796.74942,0.09310
795.25963,0.09125
793.76984,0.08942
792.28006,0.09234
790.79027,0.09834
789.30048,0.12065
787.81069,0.16561
786.32090,0.17287
784.83111,0.18016
783.34132,0.21624
781.85154,0.26720
780.36175,0.26984
778.87196,0.28701
777.38217,0.30421
775.89238,0.34701
774.40259,0.36414
772.91281,0.36738
771.42302,0.36486
769.93323,0.36237
768.44344,0.30036
766.95365,0.26455
765.46386,0.22830
763.97407,0.20457
762.48429,0.17933
760.99450,0.15411
759.50471,0.12078
758.01492,0.09974
756.52513,0.09076
755.03534,0.08651
753.54556,0.08229
752.05577,0.06937
750.56598,0.05788
749.07619,0.05491
747.58640,0.05044
746.09661,0.04599
744.60683,0.04781
743.11704,0.03150
741.62725,0.03007
740.13746,0.02831
738.64767,0.02658
737.15788,0.02263
735.66809,0.00432
734.17831,0.02427
732.68852,0.02255
731.19873,0.02086
729.70894,0.02556
728.21915,0.02934
726.72936,0.01145
725.23958,0.02443
723.74979,0.02564
722.26000,0.02688
720.77021,0.01752
719.28042,0.00537
717.79063,0.00432
716.30084,0.00732
714.81106,0.01035
713.32127,0.01435
711.83148,0.03370
710.34169,0.02572
708.85190,0.02272
707.36211,0.01974
705.87233,0.04697
704.38254,0.03791
702.89275,0.06519
701.40296,0.05524
699.91317,0.04531
698.42338,0.08918
696.93360,0.09132
695.44381,0.11307
693.95402,0.11491
692.46423,0.11678
690.97444,0.14167
689.48465,0.14252
687.99486,0.18232
686.50508,0.18853
685.01529,0.19477
683.52550,0.22709
682.03571,0.23774
680.54592,0.26162
679.05613,0.27078
677.56635,0.27997
676.07656,0.32562
674.58677,0.27013
673.09698,0.23518
671.60719,0.22136
670.11740,0.20756
668.62761,0.19839
667.13783,0.18618
665.64804,0.17139
664.15825,0.15664
662.66846,0.12044
661.17867,0.10220
659.68888,0.07761
658.19910,0.05871
656.70931,0.03983
655.21952,0.03512
653.72973,0.03705
652.23994,0.08074
650.75015,0.07611
649.26037,0.07150
647.77058,0.05678
646.28079,0.01827
644.79100,0.01680
643.30121,0.02526
641.81142,0.03375
640.32163,0.02788
638.83185,0.01449
637.34206,0.00701
635.85227,0.01065
634.36248,0.01431
632.87269,0.00432
631.38290,0.01427
629.89312,0.01009
628.40333,0.02127
626.91354,0.03248
625.42375,0.02460
623.93396,0.01110
622.44417,0.02768
620.95438,0.04429
619.46460,0.04288
617.97481,0.02900
616.48502,0.05028
614.99523,0.05968
613.50544,0.06910
612.01565,0.14352
610.52587,0.18164
609.03608,0.17640
607.54629,0.20432
606.05650,0.23226
604.56671,0.27449
603.07692,0.32005
601.58714,0.32625
600.09735,0.33247
598.60756,0.41183
597.11777,0.42046
595.62798,0.43714
594.13819,0.41375
592.64840,0.39039
591.15862,0.37035
589.66883,0.30435
588.17904,0.27658
586.68925,0.26700
585.19946,0.25743
583.70967,0.18635
582.21989,0.15726
580.73010,0.13221
579.24031,0.10718
577.75052,0.07511
576.26073,0.05932
574.77094,0.03579
573.28115,0.04340
571.79137,0.05104
570.30158,0.03088
568.81179,0.04847
567.32200,0.06645
565.83221,0.08444
564.34242,0.09504
562.85264,0.12735
561.36285,0.14271
559.87306,0.14996
558.38327,0.15723
556.89348,0.15003
555.40369,0.18506
553.91391,0.18380
552.42412,0.18257
550.93433,0.19079
549.44454,0.19597
547.95475,0.18278
546.46496,0.18471
544.97517,0.18667
543.48539,0.20775
541.99560,0.25668
540.50581,0.28571
539.01602,0.31477
537.52623,0.32369
536.03644,0.37720
534.54666,0.41776
533.05687,0.43253
531.56708,0.44733
530.07729,0.49528
528.58750,0.54962
527.09771,0.59020
525.60792,0.63079
524.11814,0.65338
522.62835,0.71065
521.13856,0.81157
519.64877,0.82680
518.15898,0.84205
516.66919,0.92206
515.17941,0.92617
513.68962,0.90400
512.19983,0.88185
510.71004,0.87518
509.22025,0.79354
507.73046,0.73245
506.24068,0.67208
504.75089,0.61174
503.26110,0.50568
501.77131,0.40247
500.28152,0.35069
498.79173,0.29894
497.30194,0.22528
495.81216,0.21013
494.32237,0.19041
492.83258,0.17071
491.34279,0.11413
489.85300,0.08823
488.36321,0.03736
486.87343,0.03662
485.38364,0.03591
483.89385,0.08180
482.40406,0.10673
480.91427,0.11294
479.42448,0.11916
477.93469,0.13662
476.44491,0.12957
474.95512,0.14696
473.46533,0.16437
471.97554,0.18617
470.48575,0.16767
468.99596,0.19046
467.50618,0.18427
466.01639,0.17811
464.52660,0.13400
463.03681,0.09652
461.54702,0.09479
460.05723,0.09309
458.56745,0.06889
457.07766,0.04731
455.58787,0.05417
454.09808,0.06106
452.60829,0.04733
451.11850,0.01477
449.62871,0.01512
448.13893,0.01551
446.64914,0.01697
445.15935,0.00432
443.66956,0.03547
442.17977,0.03281
440.68998,0.03017
439.20020,0.05574
437.71041,0.07426
436.22062,0.06650
434.73083,0.05878
433.24104,0.03846
431.75125,0.04552
430.26146,0.05237
428.77168,0.05925
427.28189,0.06143
425.79210,0.03605
424.30231,0.03003
422.81252,0.02403
421.32273,0.04919
419.83295,0.02532
418.34316,0.02447
416.85337,0.02364
415.36358,0.04041
413.87379,0.06050
412.38400,0.06411
410.89422,0.06775
409.40443,0.06905
407.91464,0.03996
406.42485,0.05051
404.93506,0.05318
403.44527,0.05588
401.95548,0.03419
400.46570,0.02008
398.97591,0.03065
397.48612,0.04125
395.99633,0.03525
394.50654,0.03894
393.01675,0.03393
391.52697,0.02895
390.03718,0.03233
388.54739,0.03785
387.05760,0.03315
385.56781,0.02846
384.07802,0.02086
382.58824,0.00432
381.09845,0.00875
379.60866,0.01321
378.11887,0.01463
376.62908,0.00782
375.13929,0.00918
373.64950,0.01055
372.15972,0.04202
370.66993,0.02965
369.18014,0.02602
367.69035,0.02241
366.20056,0.02732
364.71077,0.03720
363.22099,0.03060
361.73120,0.02403
360.24141,0.04861
358.75162,0.01709
357.26183,0.01342
355.77204,0.00977
354.28225,0.05992
352.79247,0.05562
351.30268,0.06301
349.81289,0.07043
348.32310,0.06031
346.83331,0.06389
345.34352,0.05877
343.85374,0.05367
342.36395,0.04294
340.87416,0.02916
339.38437,0.01707
337.89458,0.00499
336.40479,0.00662
334.91501,0.02573
333.42522,0.03601
331.93543,0.04633
330.44564,0.02046
328.95585,0.02811
327.46606,0.04357
325.97627,0.05905
324.48649,0.04696
322.99670,0.03655
321.50691,0.03855
320.01712,0.04057
318.52733,0.05759
317.03754,0.09397
315.54776,0.10290
314.05797,0.11186
312.56818,0.12804
311.07839,0.13362
309.58860,0.12084
308.09881,0.10809
306.60902,0.07484
305.11924,0.06402
303.62945,0.05252
302.13966,0.04104
300.64987,0.00435
299.16008,0.00432
