1778.52000,0.01805
1777.03021,0.01371
1775.54042,0.01632
1774.05063,0.01451
1772.56085,0.01791
1771.07106,0.01516
1769.58127,0.02453
1768.09148,0.02010
1766.60169,0.01272
1765.11190,0.01106
1763.62212,0.00768
1762.13233,0.01274
1760.64254,0.01831
1759.15275,0.01921
1757.66296,0.01692
1756.17317,0.01070
1754.68339,0.01735
1753.19360,0.00970
1751.70381,0.01171
1750.21402,0.00880
1748.72423,0.00938
1747.23444,0.00899
1745.74465,0.00591
1744.25487,0.01891
1742.76508,0.01340
1741.27529,0.01583
1739.78550,0.01457
1738.29571,0.00790
1736.80592,0.00768
1735.31614,0.01415
1733.82635,0.01052
1732.33656,0.00666
1730.84677,0.01444
1729.35698,0.00000
1727.86719,0.01549
1726.37740,0.01493
1724.88762,0.00650
1723.39783,0.01415
1721.90804,0.00404
1720.41825,0.00433
1718.92846,0.00540
1717.43867,0.00575
1715.94889,0.01584
1714.45910,0.01113
1712.96931,0.00768
1711.47952,0.00817
1709.98973,0.00299
1708.49994,0.00321
1707.01016,0.00333
1705.52037,0.00347
1704.03058,0.01826
1702.54079,0.01455
1701.05100,0.01506
1699.56121,0.01090
1698.07142,0.01319
1696.58164,0.00685
1695.09185,0.01660
1693.60206,0.00784
1692.11227,0.02085
1690.62248,0.01856
1689.13269,0.01927
1687.64291,0.02667
1686.15312,0.02594
1684.66333,0.01806
1683.17354,0.04407
1681.68375,0.02834
1680.19396,0.03511
1678.70417,0.03722
1677.21439,0.03763
1675.72460,0.03805
1674.23481,0.03406
1672.74502,0.05109
1671.25523,0.05875
1669.76544,0.05582
1668.27566,0.05636
1666.78587,0.06089
1665.29608,0.06865
1663.80629,0.07125
1662.31650,0.07016
1660.82671,0.07503
1659.33693,0.07721
1657.84714,0.08114
1656.35735,0.07052
1654.86756,0.09327
1653.37777,0.07775
1651.88798,0.07610
1650.39819,0.07990
1648.90841,0.07508
1647.41862,0.09425
1645.92883,0.09516
1644.43904,0.09610
1642.94925,0.08792
1641.45946,0.08124
1639.96968,0.07978
1638.47989,0.07710
1636.99010,0.07445
1635.50031,0.06615
1634.01052,0.07936
1632.52073,0.07505
1631.03094,0.06657
1629.54116,0.08677
1628.05137,0.08501
1626.56158,0.09463
1625.07179,0.10033
1623.58200,0.11001
1622.09221,0.09747
1620.60243,0.09410
1619.11264,0.10409
1617.62285,0.11411
1616.13306,0.09796
1614.64327,0.08653
1613.15348,0.09242
1611.66370,0.10946
1610.17391,0.09464
1608.68412,0.08702
1607.19433,0.09992
1605.70454,0.08345
1604.21475,0.08961
1602.72496,0.09579
1601.23518,0.09743
1599.74539,0.08427
1598.25560,0.08151
1596.76581,0.09532
1595.27602,0.09459
1593.78623,0.09511
1592.29645,0.09665
1590.80666,0.09499
1589.31687,0.07508
1587.82708,0.09077
1586.33729,0.07956
1584.84750,0.08171
1583.35771,0.08907
1581.86793,0.08460
1580.37814,0.08657
1578.88835,0.07128
1577.39856,0.06737
1575.90877,0.07263
1574.41898,0.05618
1572.92920,0.05086
1571.43941,0.05224
1569.94962,0.05402
1568.45983,0.05581
1566.97004,0.03824
1565.48025,0.04936
1563.99047,0.04542
1562.50068,0.05090
1561.01089,0.03861
1559.52110,0.04117
1558.03131,0.03734
1556.54152,0.03377
1555.05173,0.02405
1553.56195,0.02399
1552.07216,0.02297
1550.58237,0.00640
1549.09258,0.00296
1547.60279,0.02647
1546.11300,0.02752
1544.62322,0.02612
1543.13343,0.02376
1541.64364,0.01895
1540.15385,0.01331
1538.66406,0.00768
1537.17427,0.02159
1535.68448,0.02120
1534.19470,0.02577
1532.70491,0.01924
1531.21512,0.03918
1529.72533,0.03270
1528.23554,0.02427
1526.74575,0.03489
1525.25597,0.03862
1523.76618,0.03792
1522.27639,0.02193
1520.78660,0.04006
1519.29681,0.04512
1517.80702,0.05317
1516.31724,0.05679
1514.82745,0.05204
1513.33766,0.04645
1511.84787,0.04088
1510.35808,0.05349
1508.86829,0.06218
1507.37850,0.04816
1505.88872,0.04948
1504.39893,0.06590
1502.90914,0.07197
1501.41935,0.09165
1499.92956,0.07034
1498.43977,0.08364
1496.94999,0.07325
1495.46020,0.08586
1493.97041,0.11678
1492.48062,0.12993
1490.99083,0.11618
1489.50104,0.14001
1488.01125,0.14137
1486.52147,0.14276
1485.03168,0.16987
1483.54189,0.18935
1482.05210,0.21008
1480.56231,0.21454
1479.07252,0.23853
1477.58274,0.25712
1476.09295,0.27276
1474.60316,0.27558
1473.11337,0.28707
1471.62358,0.30106
1470.13379,0.26763
1468.64401,0.28735
1467.15422,0.30783
1465.66443,0.31660
1464.17464,0.32540
1462.68485,0.35411
1461.19506,0.39692
1459.70527,0.43532
1458.21549,0.47769
1456.72570,0.54998
1455.23591,0.64700
1453.74612,0.69365
1452.25633,0.73784
1450.76654,0.75563
1449.27676,0.72946
1447.78697,0.73963
1446.29718,0.70980
1444.80739,0.69149
1443.31760,0.67320
1441.82781,0.62343
1440.33802,0.57763
1438.84824,0.54817
1437.35845,0.53949
1435.86866,0.48364
1434.37887,0.50342
1432.88908,0.54423
1431.39929,0.58234
1429.90951,0.65433
1428.41972,0.76414
1426.92993,0.79022
1425.44014,0.84622
1423.95035,0.87160
1422.46056,0.89701
1420.97078,0.93381
1419.48099,0.96495
1417.99120,0.99167
1416.50141,0.95022
1415.01162,0.90459
1413.52183,0.88196
1412.03204,0.80970
1410.54226,0.73351
1409.05247,0.67735
1407.56268,0.62443
1406.07289,0.56808
1404.58310,0.54066
1403.09331,0.51326
1401.60353,0.44710
1400.11374,0.37626
1398.62395,0.33386
1397.13416,0.29396
1395.64437,0.24593
1394.15458,0.22980
1392.66479,0.16403
1391.17501,0.14646
1389.68522,0.11261
1388.19543,0.09805
1386.70564,0.09304
1385.21585,0.08804
1383.72606,0.05701
1382.23628,0.05194
1380.74649,0.03651
1379.25670,0.04187
1377.76691,0.03144
1376.27712,0.02474
1374.78733,0.00768
1373.29755,0.01929
1371.80776,0.01067
1370.31797,0.02109
1368.82818,0.02425
1367.33839,0.02743
1365.84860,0.03175
1364.35881,0.04820
1362.86903,0.05010
1361.37924,0.06165
1359.88945,0.07694
1358.39966,0.09522
1356.90987,0.11574
1355.42008,0.18719
1353.93030,0.23692
1352.44051,0.27950
1350.95072,0.32211
1349.46093,0.37389
1347.97114,0.43187
1346.48135,0.50445
1344.99156,0.56618
1343.50178,0.64325
1342.01199,0.74111
1340.52220,0.78414
1339.03241,0.84992
1337.54262,0.89892
1336.05283,0.89693
1334.56305,0.89496
1333.07326,0.89043
1331.58347,0.91902
1330.09368,0.91997
1328.60389,0.91377
1327.11410,0.90192
1325.62432,0.84265
1324.13453,0.79947
1322.64474,0.75829
1321.15495,0.73665
1319.66516,0.71516
1318.17537,0.69369
1316.68558,0.64198
1315.19580,0.60042
1313.70601,0.57594
1312.21622,0.56581
1310.72643,0.52210
1309.23664,0.48386
1307.74685,0.42611
1306.25707,0.39854
1304.76728,0.37680
1303.27749,0.35508
1301.78770,0.32140
1300.29791,0.25908
1298.80812,0.24423
1297.31834,0.19802
1295.82855,0.17358
1294.33876,0.15732
1292.84897,0.13787
1291.35918,0.10807
1289.86939,0.10460
1288.37960,0.10116
1286.88982,0.10306
1285.40003,0.10300
1283.91024,0.09827
1282.42045,0.09011
1280.93066,0.05899
1279.44087,0.06299
1277.95109,0.06157
1276.46130,0.03769
1274.97151,0.03966
1273.48172,0.04165
1271.99193,0.03118
1270.50214,0.04792
1269.01235,0.05011
1267.52257,0.05059
1266.03278,0.04541
1264.54299,0.03902
1263.05320,0.02944
1261.56341,0.02866
1260.07362,0.02790
1258.58384,0.03001
1257.09405,0.00768
1255.60426,0.01294
1254.11447,0.02564
1252.62468,0.01637
1251.13489,0.02269
1249.64511,0.02533
1248.15532,0.01663
1246.66553,0.02080
1245.17574,0.02499
1243.68595,0.01735
1242.19616,0.02209
1240.70637,0.04489
1239.21659,0.03485
1237.72680,0.03447
1236.23701,0.02794
1234.74722,0.03378
1233.25743,0.03484
1231.76764,0.03591
1230.27786,0.02157
1228.78807,0.02084
1227.29828,0.01940
1225.80849,0.01155
1224.31870,0.00768
1222.82891,0.02771
1221.33912,0.03343
1219.84934,0.03954
1218.35955,0.04567
1216.86976,0.05048
1215.37997,0.07186
1213.89018,0.08140
1212.40039,0.07540
1210.91061,0.06177
1209.42082,0.07435
1207.93103,0.06571
1206.44124,0.05709
1204.95145,0.07592
1203.46166,0.05599
1201.97188,0.05733
1200.48209,0.05647
1198.99230,0.04797
1197.50251,0.04740
1196.01272,0.05625
1194.52293,0.04597
1193.03314,0.03572
1191.54336,0.03253
1190.05357,0.01751
1188.56378,0.03043
1187.07399,0.02064
1185.58420,0.02620
1184.09441,0.02214
1182.60463,0.01490
1181.11484,0.00768
1179.62505,0.00856
1178.13526,0.01143
1176.64547,0.00889
1175.15568,0.00712
1173.66589,0.01970
1172.17611,0.02415
1170.68632,0.01591
1169.19653,0.00768
1167.70674,0.00964
1166.21695,0.01583
1164.72716,0.04798
1163.23738,0.04779
1161.74759,0.05405
1160.25780,0.04625
1158.76801,0.05367
1157.27822,0.06111
1155.78843,0.06722
1154.29865,0.07804
1152.80886,0.10372
1151.31907,0.08346
1149.82928,0.10301
1148.33949,0.10182
1146.84970,0.10857
1145.35991,0.11534
1143.87013,0.13301
1142.38034,0.13439
1140.89055,0.13703
1139.40076,0.17404
1137.91097,0.16685
1136.42118,0.19724
1134.93140,0.20048
1133.44161,0.20373
1131.95182,0.21888
1130.46203,0.21428
1128.97224,0.22033
1127.48245,0.22442
1125.99266,0.25399
1124.50288,0.26827
1123.01309,0.25020
1121.52330,0.23216
1120.03351,0.22130
1118.54372,0.21517
1117.05393,0.23772
1115.56415,0.22051
1114.07436,0.22285
1112.58457,0.21854
1111.09478,0.21425
1109.60499,0.22383
1108.11520,0.22676
1106.62542,0.22131
1105.13563,0.20378
1103.64584,0.22210
1102.15605,0.22463
1100.66626,0.21174
1099.17647,0.19888
1097.68668,0.19926
1096.19690,0.20584
1094.70711,0.21615
1093.21732,0.19561
1091.72753,0.19707
1090.23774,0.18670
1088.74795,0.17635
1087.25817,0.16949
1085.76838,0.14956
1084.27859,0.17906
1082.78880,0.17302
1081.29901,0.16378
1079.80922,0.18347
1078.31943,0.18849
1076.82965,0.19354
1075.33986,0.20787
1073.85007,0.21654
1072.36028,0.23957
1070.87049,0.25867
1069.38070,0.27928
1067.89092,0.28372
1066.40113,0.28820
1064.91134,0.36076
1063.42155,0.45583
1061.93176,0.54871
1060.44197,0.63988
1058.95219,0.71946
1057.46240,0.78337
1055.97261,0.84731
1054.48282,0.95488
1052.99303,0.99552
1051.50324,0.98010
1050.01345,0.97112
1048.52367,0.96242
1047.03388,0.95238
1045.54409,0.94236
1044.05430,0.89272
1042.56451,0.79516
1041.07472,0.72184
1039.58494,0.66684
1038.09515,0.59777
1036.60536,0.56961
1035.11557,0.54148
1033.62578,0.48336
1032.13599,0.42081
1030.64620,0.35434
1029.15642,0.29085
1027.66663,0.27346
1026.17684,0.25610
1024.68705,0.22456
1023.19726,0.18489
1021.70747,0.17020
1020.21769,0.16418
1018.72790,0.14113
1017.23811,0.12911
1015.74832,0.11711
1014.25853,0.10748
1012.76874,0.09935
1011.27896,0.11201
1009.78917,0.11925
1008.29938,0.09786
1006.80959,0.09292
1005.31980,0.08801
1003.83001,0.04643
1002.34022,0.03897
1000.85044,0.04067
999.36065,0.07032
997.87086,0.08764
996.38107,0.10499
994.89128,0.10951
993.40149,0.13160
991.91171,0.14976
990.42192,0.17856
988.93213,0.17231
987.44234,0.16336
985.95255,0.15444
984.46276,0.13492
982.97297,0.13790
981.48319,0.13770
979.99340,0.12269
978.50361,0.10809
977.01382,0.09350
975.52403,0.07684
974.03424,0.04835
972.54446,0.03989
971.05467,0.03392
969.56488,0.01711
968.07509,0.01688
966.58530,0.01667
965.09551,0.01822
963.60573,0.00768
962.11594,0.02582
960.62615,0.01112
959.13636,0.01274
957.64657,0.01440
956.15678,0.02398
954.66699,0.02025
953.17721,0.05508
951.68742,0.04151
950.19763,0.04625
948.70784,0.05101
947.21805,0.06395
945.72826,0.07321
944.23848,0.09485
942.74869,0.10218
941.25890,0.10607
939.76911,0.12395
938.27932,0.14186
936.78953,0.16658
935.29974,0.18317
933.80996,0.20300
932.32017,0.19519
930.83038,0.21963
929.34059,0.24411
927.85080,0.24155
926.36101,0.26422
924.87123,0.32002
923.38144,0.37955
921.89165,0.41279
920.40186,0.44606
918.91207,0.53605
917.42228,0.65325
915.93250,0.81865
914.44271,1.02732
912.95292,1.11704
911.46313,1.20678
909.97334,1.42935
908.48355,1.68704
906.99376,1.85999
905.50398,1.99518
904.01419,1.99758
902.52440,2.00000
901.03461,1.98503
899.54482,1.94686
898.05503,1.77875
896.56525,1.58275
895.07546,1.44767
893.58567,1.31262
892.09588,1.07098
890.60609,0.81775
889.11630,0.58900
887.62651,0.44997
886.13673,0.40114
884.64694,0.35234
883.15715,0.25316
881.66736,0.18045
880.17757,0.15173
878.68778,0.12193
877.19800,0.09215
875.70821,0.07240
874.21842,0.04774
872.72863,0.03644
871.23884,0.04444
869.74905,0.04344
868.25927,0.04247
866.76948,0.03177
865.27969,0.03566
863.78990,0.05094
862.30011,0.06279
860.81032,0.06960
859.32053,0.07643
857.83075,0.07922
856.34096,0.09462
854.85117,0.10041
853.36138,0.12155
851.87159,0.13036
850.38180,0.13919
848.89202,0.17893
847.40223,0.18608
845.91244,0.21178
844.42265,0.20552
842.93286,0.19927
841.44307,0.21863
839.95329,0.25085
838.46350,0.25741
836.97371,0.26349
835.48392,0.25811
833.99413,0.25275
832.50434,0.25496
831.01455,0.24755
829.52477,0.23967
828.03498,0.22168
826.54519,0.21299
825.05540,0.20432
823.56561,0.16738
822.07582,0.17173
820.58604,0.14992
819.09625,0.14282
817.60646,0.13576
816.11667,0.13032
814.62688,0.11626
813.13709,0.12150
811.64730,0.11366
810.15752,0.12648
808.66773,0.13932
807.17794,0.14046
805.68815,0.13939
804.19836,0.15021
802.70857,0.13980
801.21879,0.12942
799.72900,0.13438
798.23921,0.13071
796.74942,0.13671
795.25963,0.12667
793.76984,0.11665
792.28006,0.13162
790.79027,0.15377
789.30048,0.17817
787.81069,0.20432
786.32090,0.22890
784.83111,0.25349
783.34132,0.26070
781.85154,0.30820
780.36175,0.32583
778.87196,0.35015
777.38217,0.37450
775.89238,0.40084
774.40259,0.42153
772.91281,0.41161
771.42302,0.40072
769.93323,0.38986
768.44344,0.36642
766.95365,0.29260
765.46386,0.26575
763.97407,0.22014
762.48429,0.19878
760.99450,0.17743
759.50471,0.12276
758.01492,0.10492
756.52513,0.09551
755.03534,0.10009
753.54556,0.10469
752.05577,0.10227
750.56598,0.09444
749.07619,0.06414
747.58640,0.05179
746.09661,0.03946
744.60683,0.03173
743.11704,0.02674
741.62725,0.00768
740.13746,0.00914
738.64767,0.01062
737.15788,0.01521
735.66809,0.01143
734.17831,0.02546
732.68852,0.02012
731.19873,0.01480
729.70894,0.01037
728.21915,0.02696
726.72936,0.02603
725.23958,0.01351
723.74979,0.01571
722.26000,0.01793
720.77021,0.01301
719.28042,0.02491
717.79063,0.00768
716.30084,0.01075
714.81106,0.01383
713.32127,0.01645
711.83148,0.02749
710.34169,0.03733
708.85190,0.03656
707.36211,0.03581
705.87233,0.05165
704.38254,0.04156
702.89275,0.05398
701.40296,0.05914
699.91317,0.06432
698.42338,0.10004
696.93360,0.09675
695.44381,0.11226
693.95402,0.12767
692.46423,0.14310
690.97444,0.13719
689.48465,0.14242
687.99486,0.16620
686.50508,0.18692
685.01529,0.20766
683.52550,0.24338
682.03571,0.26726
680.54592,0.27436
679.05613,0.26012
677.56635,0.24590
676.07656,0.27482
674.58677,0.24224
673.09698,0.24921
671.60719,0.22508
670.11740,0.20098
668.62761,0.19567
667.13783,0.16000
665.64804,0.15005
664.15825,0.14013
662.66846,0.10922
661.17867,0.09465
659.68888,0.08579
658.19910,0.08127
656.70931,0.07678
655.21952,0.05736
653.72973,0.05749
652.23994,0.06999
650.75015,0.06115
649.26037,0.05233
647.77058,0.05947
646.28079,0.04415
644.79100,0.04047
643.30121,0.04250
641.81142,0.04454
640.32163,0.07034
638.83185,0.05811
637.34206,0.04219
635.85227,0.03223
634.36248,0.02229
632.87269,0.02968
631.38290,0.00768
629.89312,0.03923
628.40333,0.02644
626.91354,0.01369
625.42375,0.02653
623.93396,0.04334
622.44417,0.04931
620.95438,0.05530
619.46460,0.04501
617.97481,0.06761
616.48502,0.07392
614.99523,0.08890
613.50544,0.10391
612.01565,0.13624
610.52587,0.15599
609.03608,0.18195
607.54629,0.19952
606.05650,0.21712
604.56671,0.26983
603.07692,0.30799
601.58714,0.32739
600.09735,0.34682
598.60756,0.39666
597.11777,0.41317
595.62798,0.42229
594.13819,0.42353
592.64840,0.42479
591.15862,0.39421
589.66883,0.35080
588.17904,0.28469
586.68925,0.25627
585.19946,0.22789
583.70967,0.16950
582.21989,0.12745
580.73010,0.11643
579.24031,0.10544
577.75052,0.08841
576.26073,0.05337
574.77094,0.07074
573.28115,0.06898
571.79137,0.06725
570.30158,0.08098
568.81179,0.10166
567.32200,0.09271
565.83221,0.08379
564.34242,0.12776
562.85264,0.15224
561.36285,0.17279
559.87306,0.16977
558.38327,0.16677
556.89348,0.17356
555.40369,0.19025
553.91391,0.19116
552.42412,0.19209
550.93433,0.20169
549.44454,0.18413
547.95475,0.22615
546.46496,0.23792
544.97517,0.24972
543.48539,0.25475
541.99560,0.27907
540.50581,0.29885
539.01602,0.31865
537.52623,0.35244
536.03644,0.38056
534.54666,0.42972
533.05687,0.43776
531.56708,0.44582
530.07729,0.48417
528.58750,0.52799
527.09771,0.56182
525.60792,0.59567
524.11814,0.64178
522.62835,0.68050
521.13856,0.73951
519.64877,0.76864
518.15898,0.79780
516.66919,0.80944
515.17941,0.86855
513.68962,0.85862
512.19983,0.84871
510.71004,0.80016
509.22025,0.75781
507.73046,0.65594
506.24068,0.62402
504.75089,0.59212
503.26110,0.47846
501.77131,0.38336
500.28152,0.34462
498.79173,0.30590
497.30194,0.21457
495.81216,0.16701
494.32237,0.14244
492.83258,0.11790
491.34279,0.08350
489.85300,0.09311
488.36321,0.08717
486.87343,0.08101
485.38364,0.07488
483.89385,0.08112
482.40406,0.09579
480.91427,0.10554
479.42448,0.11531
477.93469,0.14092
476.44491,0.17916
474.95512,0.18295
473.46533,0.18677
471.97554,0.19741
470.48575,0.23969
468.99596,0.20937
467.50618,0.19932
466.01639,0.18930
464.52660,0.16324
463.03681,0.11967
461.54702,0.11231
460.05723,0.10498
458.56745,0.08248
457.07766,0.05408
455.58787,0.03385
454.09808,0.01364
452.60829,0.03324
451.11850,0.01506
449.62871,0.01136
448.13893,0.00768
446.64914,0.02411
445.15935,0.03216
443.66956,0.01553
442.17977,0.01745
440.68998,0.01940
439.20020,0.03347
437.71041,0.04782
436.22062,0.06677
434.73083,0.08573
433.24104,0.06853
431.75125,0.05085
430.26146,0.04432
428.77168,0.03781
427.28189,0.05431
425.79210,0.07478
424.30231,0.08181
422.81252,0.08887
421.32273,0.07111
419.83295,0.06055
418.34316,0.04631
416.85337,0.03209
415.36358,0.03098
413.87379,0.03757
412.38400,0.03565
410.89422,0.03375
409.40443,0.05005
407.91464,0.06933
406.42485,0.07875
404.93506,0.07436
403.44527,0.06999
401.95548,0.05082
400.46570,0.04799
398.97591,0.04233
397.48612,0.03670
395.99633,0.05222
394.50654,0.04504
393.01675,0.03429
391.52697,0.02357
390.03718,0.03706
388.54739,0.02957
387.05760,0.03087
385.56781,0.03220
384.07802,0.03541
382.58824,0.04161
381.09845,0.02497
379.60866,0.00836
378.11887,0.01449
376.62908,0.01670
375.13929,0.01101
373.64950,0.00536
372.15972,0.02371
370.66993,0.03022
369.18014,0.03775
367.69035,0.04530
366.20056,0.03039
364.71077,0.04441
363.22099,0.03264
361.73120,0.02090
360.24141,0.02140
358.75162,0.04318
357.26183,0.05053
355.77204,0.05791
354.28225,0.07284
352.79247,0.07075
351.30268,0.05893
349.81289,0.04712
348.32310,0.07303
346.83331,0.09352
345.34352,0.07376
343.85374,0.05403
342.36395,0.06001
340.87416,0.02649
339.38437,0.02758
337.89458,0.02870
336.40479,0.03824
334.91501,0.03249
333.42522,0.03615
331.93543,0.03983
330.44564,0.03045
328.95585,0.05271
327.46606,0.05202
325.97627,0.05136
324.48649,0.02057
322.99670,0.00933
321.50691,0.02104
320.01712,0.03278
318.52733,0.06036
317.03754,0.08005
315.54776,0.10385
314.05797,0.12766
312.56818,0.13162
311.07839,0.06221
309.58860,0.05868
308.09881,0.05517
306.60902,0.03476
305.11924,0.03068
303.62945,0.02514
302.13966,0.01963
300.64987,0.02748
299.16008,0.00768
