1778.52000,0.01354
1777.03021,0.01268
1775.54042,0.00918
1774.05063,0.01763
1772.56085,0.02148
1771.07106,0.01804
1769.58127,0.01779
1768.09148,0.01708
1766.60169,0.02273
1765.11190,0.01038
1763.62212,0.00341
1762.13233,0.01887
1760.64254,0.01608
1759.15275,0.02258
1757.66296,0.01400
1756.17317,0.01421
1754.68339,0.00080
1753.19360,0.01884
1751.70381,0.01668
1750.21402,0.01821
1748.72423,0.00952
1747.23444,0.00257
1745.74465,0.00672
1744.25487,0.00578
1742.76508,0.00876
1741.27529,0.01104
1739.78550,0.00968
1738.29571,0.01079
1736.80592,0.01825
1735.31614,0.00917
1733.82635,0.00913
1732.33656,0.01398
1730.84677,0.00814
1729.35698,0.00573
1727.86719,0.00895
1726.37740,0.01049
1724.88762,0.01546
1723.39783,0.01047
1721.90804,0.00038
1720.41825,0.01529
1718.92846,0.00514
1717.43867,0.01205
1715.94889,0.00341
1714.45910,0.01855
1712.96931,0.01325
1711.47952,0.00335
1709.98973,0.00420
1708.49994,0.00750
1707.01016,0.00522
1705.52037,0.00297
1704.03058,0.00950
1702.54079,0.00559
1701.05100,0.00000
1699.56121,0.00685
1698.07142,0.00520
1696.58164,0.00699
1695.09185,0.00393
1693.60206,0.00454
1692.11227,0.00518
1690.62248,0.00341
1689.13269,0.00533
1687.64291,0.00509
1686.15312,0.00999
1684.66333,0.00736
1683.17354,0.01255
1681.68375,0.01069
1680.19396,0.02129
1678.70417,0.00901
1677.21439,0.01210
1675.72460,0.02179
1674.23481,0.01324
1672.74502,0.02565
1671.25523,0.03444
1669.76544,0.02669
1668.27566,0.03284
1666.78587,0.04852
1665.29608,0.03889
1663.80629,0.03148
1662.31650,0.04382
1660.82671,0.03645
1659.33693,0.04372
1657.84714,0.05126
1656.35735,0.04031
1654.86756,0.04375
1653.37777,0.04600
1651.88798,0.04852
1650.39819,0.05326
1648.90841,0.05631
1647.41862,0.06182
1645.92883,0.05615
1644.43904,0.05050
1642.94925,0.05828
1641.45946,0.06340
1639.96968,0.06148
1638.47989,0.06640
1636.99010,0.06891
1635.50031,0.06608
1634.01052,0.07156
1632.52073,0.09120
1631.03094,0.09429
1629.54116,0.08449
1628.05137,0.08349
1626.56158,0.06546
1625.07179,0.06670
1623.58200,0.05554
1622.09221,0.06145
1620.60243,0.07543
1619.11264,0.06507
1617.62285,0.07860
1616.13306,0.07195
1614.64327,0.07164
1613.15348,0.07380
1611.66370,0.08987
1610.17391,0.08696
1608.68412,0.08066
1607.19433,0.08340
1605.70454,0.09931
1604.21475,0.09187
1602.72496,0.08445
1601.23518,0.07803
1599.74539,0.07163
1598.25560,0.07914
1596.76581,0.07035
1595.27602,0.08497
1593.78623,0.08768
1592.29645,0.09285
1590.80666,0.07660
1589.31687,0.07037
1587.82708,0.06562
1586.33729,0.07015
1584.84750,0.08713
1583.35771,0.10633
1581.86793,0.07853
1580.37814,0.07049
1578.88835,0.06223
1577.39856,0.05741
1575.90877,0.05699
1574.41898,0.05416
1572.92920,0.06913
1571.43941,0.06367
1569.94962,0.05397
1568.45983,0.04429
1566.97004,0.04401
1565.48025,0.03036
1563.99047,0.02721
1562.50068,0.02701
1561.01089,0.02487
1559.52110,0.02204
1558.03131,0.01654
1556.54152,0.02447
1555.05173,0.00465
1553.56195,0.00264
1552.07216,0.01161
1550.58237,0.02816
1549.09258,0.01818
1547.60279,0.00895
1546.11300,0.00341
1544.62322,0.00823
1543.13343,0.00649
1541.64364,0.00795
1540.15385,0.00870
1538.66406,0.00947
1537.17427,0.01806
1535.68448,0.01815
1534.19470,0.00950
1532.70491,0.00793
1531.21512,0.00761
1529.72533,0.00341
1528.23554,0.01187
1526.74575,0.01963
1525.25597,0.02498
1523.76618,0.02986
1522.27639,0.03720
1520.78660,0.03921
1519.29681,0.03881
1517.80702,0.03769
1516.31724,0.04927
1514.82745,0.03652
1513.33766,0.04473
1511.84787,0.05297
1510.35808,0.04735
1508.86829,0.06002
1507.37850,0.05201
1505.88872,0.05620
1504.39893,0.05165
1502.90914,0.06027
1501.41935,0.04870
1499.92956,0.06492
1498.43977,0.07800
1496.94999,0.07625
1495.46020,0.06916
1493.97041,0.08767
1492.48062,0.10060
1490.99083,0.09236
1489.50104,0.10509
1488.01125,0.10604
1486.52147,0.10700
1485.03168,0.12444
1483.54189,0.14457
1482.05210,0.15499
1480.56231,0.17127
1479.07252,0.17224
1477.58274,0.18711
1476.09295,0.18617
1474.60316,0.19938
1473.11337,0.19362
1471.62358,0.21005
1470.13379,0.20019
1468.64401,0.20887
1467.15422,0.22342
1465.66443,0.23434
1464.17464,0.24529
1462.68485,0.25771
1461.19506,0.31596
1459.70527,0.37276
1458.21549,0.40767
1456.72570,0.43822
1455.23591,0.49510
1453.74612,0.54445
1452.25633,0.60624
1450.76654,0.64784
1449.27676,0.63345
1447.78697,0.63807
1446.29718,0.62811
1444.80739,0.61159
1443.31760,0.59510
1441.82781,0.58277
1440.33802,0.50860
1438.84824,0.47317
1437.35845,0.48698
1435.86866,0.47182
1434.37887,0.46862
1432.88908,0.52123
1431.39929,0.54682
1429.90951,0.58583
1428.41972,0.64849
1426.92993,0.70703
1425.44014,0.78703
1423.95035,0.80568
1422.46056,0.82434
1420.97078,0.87811
1419.48099,0.90706
1417.99120,0.91289
1416.50141,0.92653
1415.01162,0.85374
1413.52183,0.82748
1412.03204,0.78664
1410.54226,0.73876
1409.05247,0.64024
1407.56268,0.57949
1406.07289,0.52048
1404.58310,0.50448
1403.09331,0.48850
1401.60353,0.42663
1400.11374,0.35821
1398.62395,0.33025
1397.13416,0.31911
1395.64437,0.25783
1394.15458,0.22117
1392.66479,0.19525
1391.17501,0.15814
1389.68522,0.12521
1388.19543,0.11909
1386.70564,0.10300
1385.21585,0.08694
1383.72606,0.06774
1382.23628,0.04296
1380.74649,0.02527
1379.25670,0.00906
1377.76691,0.02868
1376.27712,0.00472
1374.78733,0.01221
1373.29755,0.00341
1371.80776,0.00463
1370.31797,0.01172
1368.82818,0.01506
1367.33839,0.01843
1365.84860,0.02315
1364.35881,0.02620
1362.86903,0.02854
1361.37924,0.05063
1359.88945,0.07567
1358.39966,0.08856
1356.90987,0.13629
1355.42008,0.17602
1353.93030,0.22380
1352.44051,0.24969
1350.95072,0.27560
1349.46093,0.35829
1347.97114,0.42079
1346.48135,0.47868
1344.99156,0.54463
1343.50178,0.61207
1342.01199,0.68026
1340.52220,0.70317
1339.03241,0.77092
1337.54262,0.80484
1336.05283,0.82843
1334.56305,0.85204
1333.07326,0.88676
1331.58347,0.91152
1330.09368,0.85446
1328.60389,0.83274
1327.11410,0.81908
1325.62432,0.81397
1324.13453,0.78575
1322.64474,0.75365
1321.15495,0.68041
1319.66516,0.66079
1318.17537,0.64118
1316.68558,0.61624
1315.19580,0.55966
1313.70601,0.51504
1312.21622,0.50332
1310.72643,0.45193
1309.23664,0.42443
1307.74685,0.37673
1306.25707,0.34149
1304.76728,0.33464
1303.27749,0.32781
1301.78770,0.28704
1300.29791,0.25432
1298.80812,0.24014
1297.31834,0.19797
1295.82855,0.15509
1294.33876,0.13148
1292.84897,0.10472
1291.35918,0.07507
1289.86939,0.07491
1288.37960,0.07478
1286.88982,0.08076
1285.40003,0.07848
1283.91024,0.09547
1282.42045,0.06864
1280.93066,0.06862
1279.44087,0.06717
1277.95109,0.05210
1276.46130,0.03876
1274.97151,0.03494
1273.48172,0.03115
1271.99193,0.02811
1270.50214,0.04019
1269.01235,0.02429
1267.52257,0.04154
1266.03278,0.02788
1264.54299,0.01887
1263.05320,0.02693
1261.56341,0.03026
1260.07362,0.03363
1258.58384,0.03055
1257.09405,0.02897
1255.60426,0.01230
1254.11447,0.02246
1252.62468,0.00341
1251.13489,0.02145
1249.64511,0.01565
1248.15532,0.03423
1246.66553,0.03371
1245.17574,0.03322
1243.68595,0.02678
1242.19616,0.03181
1240.70637,0.01714
1239.21659,0.01954
1237.72680,0.01174
1236.23701,0.01370
1234.74722,0.03176
1233.25743,0.02391
1231.76764,0.01608
1230.27786,0.00815
1228.78807,0.00341
1227.29828,0.01801
1225.80849,0.01633
1224.31870,0.03439
1222.82891,0.02179
1221.33912,0.03065
1219.84934,0.03308
1218.35955,0.03553
1216.86976,0.05054
1215.37997,0.05877
1213.89018,0.04972
1212.40039,0.05750
1210.91061,0.05385
1209.42082,0.02977
1207.93103,0.04530
1206.44124,0.06085
1204.95145,0.05121
1203.46166,0.05938
1201.97188,0.04589
1200.48209,0.03876
1198.99230,0.03993
1197.50251,0.04210
1196.01272,0.05818
1194.52293,0.05115
1193.03314,0.04413
1191.54336,0.03836
1190.05357,0.03139
1188.56378,0.02421
1187.07399,0.00341
1185.58420,0.01234
1184.09441,0.02372
1182.60463,0.02844
1181.11484,0.03318
1179.62505,0.01638
1178.13526,0.04029
1176.64547,0.01063
1175.15568,0.00341
1173.66589,0.01587
1172.17611,0.01447
1170.68632,0.01626
1169.19653,0.01807
1167.70674,0.02649
1166.21695,0.02884
1164.72716,0.04315
1163.23738,0.03458
1161.74759,0.04894
1160.25780,0.07817
1158.76801,0.07662
1157.27822,0.07509
1155.78843,0.08857
1154.29865,0.11717
1152.80886,0.09196
1151.31907,0.09284
1149.82928,0.12882
1148.33949,0.12220
1146.84970,0.13362
1145.35991,0.14507
1143.87013,0.13414
1142.38034,0.13832
1140.89055,0.14497
1139.40076,0.16187
1137.91097,0.18903
1136.42118,0.19648
1134.93140,0.20152
1133.44161,0.20658
1131.95182,0.22433
1130.46203,0.23626
1128.97224,0.24163
1127.48245,0.24313
1125.99266,0.23126
1124.50288,0.24913
1123.01309,0.25058
1121.52330,0.25206
1120.03351,0.25928
1118.54372,0.25167
1117.05393,0.25480
1115.56415,0.25624
1114.07436,0.24505
1112.58457,0.24837
1111.09478,0.25171
1109.60499,0.22987
1108.11520,0.22900
1106.62542,0.22937
1105.13563,0.24243
1103.64584,0.24042
1102.15605,0.22868
1100.66626,0.22513
1099.17647,0.22160
1097.68668,0.23331
1096.19690,0.21217
1094.70711,0.20348
1093.21732,0.18555
1091.72753,0.19639
1090.23774,0.20408
1088.74795,0.21180
1087.25817,0.17838
1085.76838,0.18639
1084.27859,0.16884
1082.78880,0.17325
1081.29901,0.18620
1079.80922,0.18237
1078.31943,0.17491
1076.82965,0.16747
1075.33986,0.18660
1073.85007,0.17970
1072.36028,0.18695
1070.87049,0.20835
1069.38070,0.23269
1067.89092,0.25316
1066.40113,0.27366
1064.91134,0.29953
1063.42155,0.38146
1061.93176,0.45610
1060.44197,0.52150
1058.95219,0.57792
1057.46240,0.63497
1055.97261,0.69205
1054.48282,0.71078
1052.99303,0.80188
1051.50324,0.80215
1050.01345,0.80099
1048.52367,0.80788
1047.03388,0.82065
1045.54409,0.83343
1044.05430,0.76733
1042.56451,0.73510
1041.07472,0.68000
1039.58494,0.63638
1038.09515,0.56135
1036.60536,0.53409
1035.11557,0.50685
1033.62578,0.47696
1032.13599,0.40958
1030.64620,0.34077
1029.15642,0.30364
1027.66663,0.27883
1026.17684,0.25405
1024.68705,0.21456
1023.19726,0.20334
1021.70747,0.17315
1020.21769,0.13689
1018.72790,0.11917
1017.23811,0.11207
1015.74832,0.10499
1014.25853,0.09733
1012.76874,0.08214
1011.27896,0.08378
1009.78917,0.06157
1008.29938,0.04913
1006.80959,0.04402
1005.31980,0.03894
1003.83001,0.03217
1002.34022,0.01860
1000.85044,0.03770
999.36065,0.03612
997.87086,0.03822
996.38107,0.04034
994.89128,0.05636
993.40149,0.05731
991.91171,0.08459
990.42192,0.09582
988.93213,0.09464
987.44234,0.10214
985.95255,0.10966
984.46276,0.09784
982.97297,0.08970
981.48319,0.08816
979.99340,0.06716
978.50361,0.06140
977.01382,0.05567
975.52403,0.03985
974.03424,0.03940
972.54446,0.01267
971.05467,0.00812
969.56488,0.01554
968.07509,0.00946
966.58530,0.00341
965.09551,0.01437
963.60573,0.02317
962.11594,0.01470
960.62615,0.02160
959.13636,0.01756
957.64657,0.01355
956.15678,0.01832
954.66699,0.01947
953.17721,0.03233
951.68742,0.02476
950.19763,0.03304
948.70784,0.04134
947.21805,0.06429
945.72826,0.06947
944.23848,0.08564
942.74869,0.09429
941.25890,0.11440
939.76911,0.11530
938.27932,0.11622
936.78953,0.13665
935.29974,0.15686
933.80996,0.16783
932.32017,0.20660
930.83038,0.20849
929.34059,0.21041
927.85080,0.25363
926.36101,0.27568
924.87123,0.28948
923.38144,0.32035
921.89165,0.35113
920.40186,0.38193
918.91207,0.48253
917.42228,0.61848
915.93250,0.76200
914.44271,0.93624
912.95292,1.04631
911.46313,1.15641
909.97334,1.37602
908.48355,1.59103
906.99376,1.81556
905.50398,1.89470
904.01419,1.93623
902.52440,1.97779
901.03461,2.00000
899.54482,1.97255
898.05503,1.86523
896.56525,1.67171
895.07546,1.52108
893.58567,1.37047
892.09588,1.11637
890.60609,0.86156
889.11630,0.65890
887.62651,0.48282
886.13673,0.41112
884.64694,0.33946
883.15715,0.24918
881.66736,0.17281
880.17757,0.11911
878.68778,0.09918
877.19800,0.07927
875.70821,0.06997
874.21842,0.04025
872.72863,0.01931
871.23884,0.01252
869.74905,0.00795
868.25927,0.00341
866.76948,0.01267
865.27969,0.01904
863.78990,0.02494
862.30011,0.02868
860.81032,0.03548
859.32053,0.04231
857.83075,0.05513
856.34096,0.04605
854.85117,0.07694
853.36138,0.09007
851.87159,0.08910
850.38180,0.08815
848.89202,0.11012
847.40223,0.12433
845.91244,0.15024
844.42265,0.14452
842.93286,0.13882
841.44307,0.16091
839.95329,0.18935
838.46350,0.18738
836.97371,0.20515
835.48392,0.19336
833.99413,0.18159
832.50434,0.19993
831.01455,0.18565
829.52477,0.19550
828.03498,0.16154
826.54519,0.14611
825.05540,0.13071
823.56561,0.12020
822.07582,0.09827
820.58604,0.11776
819.09625,0.12170
817.60646,0.12565
816.11667,0.09529
814.62688,0.09150
813.13709,0.07799
811.64730,0.10810
810.15752,0.10633
808.66773,0.10459
807.17794,0.09750
805.68815,0.09410
804.19836,0.10216
802.70857,0.10611
801.21879,0.11009
799.72900,0.12090
798.23921,0.12444
796.74942,0.11046
795.25963,0.10515
793.76984,0.09986
792.28006,0.11713
790.79027,0.11664
789.30048,0.13371
787.81069,0.14520
786.32090,0.16488
784.83111,0.18458
783.34132,0.21295
781.85154,0.23477
780.36175,0.25636
778.87196,0.26641
777.38217,0.27649
775.89238,0.29694
774.40259,0.31936
772.91281,0.30503
771.42302,0.29851
769.93323,0.29202
768.44344,0.25486
766.95365,0.20190
765.46386,0.17331
763.97407,0.15546
762.48429,0.13508
760.99450,0.11473
759.50471,0.10158
758.01492,0.07896
756.52513,0.07366
755.03534,0.07325
753.54556,0.07286
752.05577,0.05837
750.56598,0.03367
749.07619,0.03823
747.58640,0.04050
746.09661,0.04278
744.60683,0.04546
743.11704,0.02844
741.62725,0.01460
740.13746,0.01978
738.64767,0.02499
737.15788,0.01220
735.66809,0.01770
734.17831,0.00666
732.68852,0.00502
731.19873,0.00341
729.70894,0.01614
728.21915,0.02257
726.72936,0.01294
725.23958,0.01868
723.74979,0.02323
722.26000,0.02780
720.77021,0.02266
719.28042,0.00341
717.79063,0.01720
716.30084,0.01641
714.81106,0.01564
713.32127,0.01806
711.83148,0.03439
710.34169,0.01811
708.85190,0.02864
707.36211,0.03919
705.87233,0.04002
704.38254,0.03090
702.89275,0.04566
701.40296,0.04413
699.91317,0.04262
698.42338,0.06793
696.93360,0.06599
695.44381,0.09183
693.95402,0.10138
692.46423,0.11095
690.97444,0.13053
689.48465,0.14454
687.99486,0.16977
686.50508,0.17944
685.01529,0.18913
683.52550,0.21053
682.03571,0.23367
680.54592,0.24611
679.05613,0.24871
677.56635,0.25133
676.07656,0.27090
674.58677,0.26834
673.09698,0.21148
671.60719,0.19422
670.11740,0.17699
668.62761,0.16965
667.13783,0.14649
665.64804,0.13566
664.15825,0.12486
662.66846,0.09764
661.17867,0.06825
659.68888,0.06080
658.19910,0.04924
656.70931,0.03770
655.21952,0.04055
653.72973,0.03905
652.23994,0.04341
650.75015,0.04110
649.26037,0.03882
647.77058,0.03570
646.28079,0.02798
644.79100,0.02516
643.30121,0.02783
641.81142,0.03054
640.32163,0.02121
638.83185,0.01848
637.34206,0.01626
635.85227,0.01016
634.36248,0.00409
632.87269,0.00341
631.38290,0.00481
629.89312,0.00381
628.40333,0.01220
626.91354,0.02062
625.42375,0.01749
623.93396,0.02048
622.44417,0.01472
620.95438,0.00898
619.46460,0.04102
617.97481,0.02851
616.48502,0.05524
614.99523,0.06202
613.50544,0.06883
612.01565,0.12827
610.52587,0.15558
609.03608,0.17561
607.54629,0.19274
606.05650,0.20989
604.56671,0.25142
603.07692,0.28884
601.58714,0.30192
600.09735,0.31503
598.60756,0.37663
597.11777,0.37980
595.62798,0.37398
594.13819,0.36112
592.64840,0.34828
591.15862,0.32499
589.66883,0.28200
588.17904,0.23050
586.68925,0.21508
585.19946,0.19968
583.70967,0.16384
582.21989,0.11902
580.73010,0.10393
579.24031,0.08887
577.75052,0.06580
576.26073,0.05054
574.77094,0.04407
573.28115,0.03629
571.79137,0.02854
570.30158,0.02506
568.81179,0.04013
567.32200,0.05241
565.83221,0.06472
564.34242,0.07377
562.85264,0.10232
561.36285,0.08682
559.87306,0.10628
558.38327,0.12578
556.89348,0.10912
555.40369,0.13219
553.91391,0.13129
552.42412,0.13042
550.93433,0.12385
549.44454,0.15407
547.95475,0.16435
546.46496,0.16467
544.97517,0.16501
543.48539,0.17707
541.99560,0.20693
540.50581,0.22366
539.01602,0.24041
537.52623,0.29299
536.03644,0.31954
534.54666,0.34124
533.05687,0.36551
531.56708,0.38981
530.07729,0.45129
528.58750,0.50425
527.09771,0.54141
525.60792,0.57860
524.11814,0.66184
522.62835,0.67496
521.13856,0.76823
519.64877,0.79297
518.15898,0.81772
516.66919,0.84238
515.17941,0.84100
513.68962,0.83867
512.19983,0.83637
510.71004,0.78269
509.22025,0.73099
507.73046,0.65129
506.24068,0.60524
504.75089,0.55921
503.26110,0.47082
501.77131,0.39438
500.28152,0.34526
498.79173,0.29615
497.30194,0.21273
495.81216,0.17902
494.32237,0.17225
492.83258,0.16550
491.34279,0.12114
489.85300,0.10141
488.36321,0.08316
486.87343,0.06932
485.38364,0.05550
483.89385,0.06314
482.40406,0.09833
480.91427,0.10456
479.42448,0.11081
477.93469,0.13073
476.44491,0.12217
474.95512,0.13494
473.46533,0.14774
471.97554,0.16824
470.48575,0.16806
468.99596,0.14524
467.50618,0.14194
466.01639,0.13866
464.52660,0.12786
463.03681,0.09320
461.54702,0.07891
460.05723,0.06464
458.56745,0.06027
457.07766,0.06419
455.58787,0.06132
454.09808,0.05847
452.60829,0.03836
451.11850,0.04384
449.62871,0.03205
448.13893,0.02029
446.64914,0.00660
445.15935,0.00341
443.66956,0.02842
442.17977,0.03471
440.68998,0.04102
439.20020,0.04126
437.71041,0.04201
436.22062,0.03390
434.73083,0.02581
433.24104,0.03930
431.75125,0.06889
430.26146,0.05783
428.77168,0.04679
427.28189,0.04551
425.79210,0.03428
424.30231,0.02903
422.81252,0.02381
421.32273,0.02969
419.83295,0.02854
418.34316,0.03070
416.85337,0.03288
415.36358,0.01888
413.87379,0.03755
412.38400,0.03688
410.89422,0.03623
409.40443,0.05180
407.91464,0.03890
406.42485,0.01920
404.93506,0.02803
403.44527,0.03688
401.95548,0.03527
400.46570,0.03175
398.97591,0.03884
397.48612,0.04595
395.99633,0.01814
394.50654,0.01422
393.01675,0.02506
391.52697,0.03347
390.03718,0.02204
388.54739,0.01698
387.05760,0.01644
385.56781,0.01593
384.07802,0.01630
382.58824,0.00816
381.09845,0.00721
379.60866,0.00628
378.11887,0.01235
376.62908,0.01405
375.13929,0.00872
373.64950,0.00341
372.15972,0.02192
370.66993,0.02779
369.18014,0.02298
367.69035,0.01819
366.20056,0.03547
364.71077,0.03986
363.22099,0.03441
361.73120,0.02898
360.24141,0.03953
358.75162,0.04621
357.26183,0.03124
355.77204,0.01628
354.28225,0.02766
352.79247,0.05587
351.30268,0.06169
349.81289,0.06753
348.32310,0.10629
346.83331,0.10219
345.34352,0.08814
343.85374,0.07410
342.36395,0.05644
340.87416,0.04879
339.38437,0.02983
337.89458,0.01090
336.40479,0.02754
334.91501,0.04105
333.42522,0.02753
331.93543,0.01405
330.44564,0.00740
328.95585,0.02806
327.46606,0.03986
325.97627,0.05167
324.48649,0.05097
322.99670,0.05906
321.50691,0.03465
320.01712,0.01027
318.52733,0.04961
317.03754,0.06827
315.54776,0.07538
314.05797,0.08251
312.56818,0.11561
311.07839,0.12900
309.58860,0.10771
308.09881,0.08644
306.60902,0.07214
305.11924,0.07320
303.62945,0.04993
302.13966,0.02669
300.64987,0.01784
299.16008,0.00341
