1778.52000,0.02463
1777.03021,0.00492
1775.54042,0.00329
1774.05063,0.00675
1772.56085,0.01499
1771.07106,0.01787
1769.58127,0.03218
1768.09148,0.00818
1766.60169,0.02064
1765.11190,0.00841
1763.62212,0.00381
1762.13233,0.00367
1760.64254,0.01464
1759.15275,0.01265
1757.66296,0.01955
1756.17317,0.01032
1754.68339,0.00682
1753.19360,0.01095
1751.70381,0.00845
1750.21402,0.01262
1748.72423,0.00700
1747.23444,0.01598
1745.74465,0.02467
1744.25487,0.01183
1742.76508,0.01233
1741.27529,0.00367
1739.78550,0.00990
1738.29571,0.01203
1736.80592,0.02654
1735.31614,0.01700
1733.82635,0.01350
1732.33656,0.00718
1730.84677,0.00184
1729.35698,0.00000
1727.86719,0.01339
1726.37740,0.01287
1724.88762,0.01554
1723.39783,0.01380
1721.90804,0.01114
1720.41825,0.00470
1718.92846,0.00367
1717.43867,0.00921
1715.94889,0.02238
1714.45910,0.01783
1712.96931,0.00983
1711.47952,0.01071
1709.98973,0.01321
1708.49994,0.00591
1707.01016,0.01131
1705.52037,0.01673
1704.03058,0.01077
1702.54079,0.02131
1701.05100,0.02491
1699.56121,0.03265
1698.07142,0.00937
1696.58164,0.02254
1695.09185,0.02592
1693.60206,0.04040
1692.11227,0.02768
1690.62248,0.03810
1689.13269,0.04569
1687.64291,0.03874
1686.15312,0.05018
1684.66333,0.04867
1683.17354,0.04432
1681.68375,0.04444
1680.19396,0.05567
1678.70417,0.03303
1677.21439,0.07914
1675.72460,0.06194
1674.23481,0.04444
1672.74502,0.07163
1671.25523,0.06083
1669.76544,0.09535
1668.27566,0.09284
1666.78587,0.08054
1665.29608,0.08599
1663.80629,0.08609
1662.31650,0.09381
1660.82671,0.10694
1659.33693,0.12548
1657.84714,0.10287
1656.35735,0.09866
1654.86756,0.08117
1653.37777,0.09949
1651.88798,0.08933
1650.39819,0.09155
1648.90841,0.08334
1647.41862,0.10335
1645.92883,0.10026
1644.43904,0.09719
1642.94925,0.08718
1641.45946,0.09335
1639.96968,0.08782
1638.47989,0.10164
1636.99010,0.10092
1635.50031,0.09071
1634.01052,0.09447
1632.52073,0.09129
1631.03094,0.10523
1629.54116,0.09069
1628.05137,0.10088
1626.56158,0.08671
1625.07179,0.06876
1623.58200,0.06509
1622.09221,0.09090
1620.60243,0.08950
1619.11264,0.09287
1617.62285,0.09279
1616.13306,0.09051
1614.64327,0.09205
1613.15348,0.10249
1611.66370,0.08983
1610.17391,0.10349
1608.68412,0.09120
1607.19433,0.10110
1605.70454,0.11515
1604.21475,0.11054
1602.72496,0.10594
1601.23518,0.08586
1599.74539,0.06991
1598.25560,0.09010
1596.76581,0.09290
1595.27602,0.09350
1593.78623,0.10109
1592.29645,0.08527
1590.80666,0.08816
1589.31687,0.08411
1587.82708,0.07913
1586.33729,0.08337
1584.84750,0.10821
1583.35771,0.09476
1581.86793,0.08355
1580.37814,0.07774
1578.88835,0.07228
1577.39856,0.06938
1575.90877,0.07663
1574.41898,0.05478
1572.92920,0.07063
1571.43941,0.06181
1569.94962,0.05381
1568.45983,0.04583
1566.97004,0.04531
1565.48025,0.02740
1563.99047,0.03866
1562.50068,0.03790
1561.01089,0.03274
1559.52110,0.02570
1558.03131,0.05289
1556.54152,0.02943
1555.05173,0.01644
1553.56195,0.01774
1552.07216,0.02254
1550.58237,0.04035
1549.09258,0.01765
1547.60279,0.00574
1546.11300,0.00367
1544.62322,0.01237
1543.13343,0.02299
1541.64364,0.02731
1540.15385,0.01930
1538.66406,0.01131
1537.17427,0.03217
1535.68448,0.02296
1534.19470,0.01980
1532.70491,0.00367
1531.21512,0.01446
1529.72533,0.03477
1528.23554,0.04561
1526.74575,0.04063
1525.25597,0.04455
1523.76618,0.04944
1522.27639,0.05658
1520.78660,0.04252
1519.29681,0.04463
1517.80702,0.05153
1516.31724,0.04704
1514.82745,0.04416
1513.33766,0.05113
1511.84787,0.05812
1510.35808,0.05880
1508.86829,0.05634
1507.37850,0.06847
1505.88872,0.06701
1504.39893,0.06146
1502.90914,0.06733
1501.41935,0.06974
1499.92956,0.07947
1498.43977,0.08288
1496.94999,0.07935
1495.46020,0.11512
1493.97041,0.11196
1492.48062,0.11452
1490.99083,0.13833
1489.50104,0.14030
1488.01125,0.14737
1486.52147,0.15447
1485.03168,0.15272
1483.54189,0.19091
1482.05210,0.20663
1480.56231,0.23504
1479.07252,0.24005
1477.58274,0.26091
1476.09295,0.28528
1474.60316,0.28022
1473.11337,0.29261
1471.62358,0.30692
1470.13379,0.32284
1468.64401,0.33118
1467.15422,0.33606
1465.66443,0.35776
1464.17464,0.37948
1462.68485,0.40407
1461.19506,0.46607
1459.70527,0.52936
1458.21549,0.55814
1456.72570,0.61040
1455.23591,0.67819
1453.74612,0.73651
1452.25633,0.80246
1450.76654,0.81965
1449.27676,0.83971
1447.78697,0.81704
1446.29718,0.82354
1444.80739,0.81153
1443.31760,0.79955
1441.82781,0.72440
1440.33802,0.64009
1438.84824,0.58304
1437.35845,0.57607
1435.86866,0.55455
1434.37887,0.58690
1432.88908,0.61801
1431.39929,0.68366
1429.90951,0.71894
1428.41972,0.79288
1426.92993,0.88744
1425.44014,0.96175
1423.95035,0.99649
1422.46056,1.03125
1420.97078,1.07080
1419.48099,1.11321
1417.99120,1.14900
1416.50141,1.12242
1415.01162,1.08826
1413.52183,1.02498
1412.03204,0.94304
1410.54226,0.89660
1409.05247,0.80933
1407.56268,0.72746
1406.07289,0.69091
1404.58310,0.64806
1403.09331,0.60523
1401.60353,0.51237
1400.11374,0.44647
1398.62395,0.39104
1397.13416,0.35971
1395.64437,0.29546
1394.15458,0.26672
1392.66479,0.22279
1391.17501,0.18681
1389.68522,0.14673
1388.19543,0.11397
1386.70564,0.09881
1385.21585,0.08367
1383.72606,0.07252
1382.23628,0.02528
1380.74649,0.03920
1379.25670,0.03477
1377.76691,0.01264
1376.27712,0.01649
1374.78733,0.00264
1373.29755,0.01264
1371.80776,0.00367
1370.31797,0.03868
1368.82818,0.03033
1367.33839,0.02200
1365.84860,0.02478
1364.35881,0.04120
1362.86903,0.05195
1361.37924,0.07792
1359.88945,0.09791
1358.39966,0.11728
1356.90987,0.15758
1355.42008,0.22705
1353.93030,0.26772
1352.44051,0.30667
1350.95072,0.34565
1349.46093,0.44341
1347.97114,0.50667
1346.48135,0.57122
1344.99156,0.67570
1343.50178,0.75297
1342.01199,0.78719
1340.52220,0.82681
1339.03241,0.90384
1337.54262,0.94383
1336.05283,0.99509
1334.56305,1.04638
1333.07326,1.12540
1331.58347,1.12812
1330.09368,1.12262
1328.60389,1.01611
1327.11410,1.03062
1325.62432,1.00556
1324.13453,1.00555
1322.64474,0.91180
1321.15495,0.86876
1319.66516,0.83683
1318.17537,0.80493
1316.68558,0.72617
1315.19580,0.68133
1313.70601,0.63968
1312.21622,0.58729
1310.72643,0.54379
1309.23664,0.48891
1307.74685,0.48853
1306.25707,0.41090
1304.76728,0.39537
1303.27749,0.37987
1301.78770,0.31593
1300.29791,0.29889
1298.80812,0.24767
1297.31834,0.20471
1295.82855,0.15006
1294.33876,0.14294
1292.84897,0.14186
1291.35918,0.11103
1289.86939,0.09813
1288.37960,0.08525
1286.88982,0.09504
1285.40003,0.08300
1283.91024,0.11502
1282.42045,0.09131
1280.93066,0.08568
1279.44087,0.04682
1277.95109,0.02793
1276.46130,0.03061
1274.97151,0.02952
1273.48172,0.02845
1271.99193,0.02645
1270.50214,0.02828
1269.01235,0.03077
1267.52257,0.04531
1266.03278,0.02948
1264.54299,0.00132
1263.05320,0.00845
1261.56341,0.01403
1260.07362,0.01963
1258.58384,0.01671
1257.09405,0.01254
1255.60426,0.00840
1254.11447,0.01188
1252.62468,0.00367
1251.13489,0.02225
1249.64511,0.03357
1248.15532,0.01229
1246.66553,0.02699
1245.17574,0.04171
1243.68595,0.03444
1242.19616,0.00946
1240.70637,0.00763
1239.21659,0.01342
1237.72680,0.01956
1236.23701,0.01843
1234.74722,0.02176
1233.25743,0.01372
1231.76764,0.00570
1230.27786,0.01227
1228.78807,0.00367
1227.29828,0.00450
1225.80849,0.01233
1224.31870,0.04298
1222.82891,0.01982
1221.33912,0.03785
1219.84934,0.04229
1218.35955,0.04676
1216.86976,0.05252
1215.37997,0.06083
1213.89018,0.07012
1212.40039,0.06107
1210.91061,0.05679
1209.42082,0.05982
1207.93103,0.05701
1206.44124,0.05423
1204.95145,0.05670
1203.46166,0.04368
1201.97188,0.06647
1200.48209,0.03702
1198.99230,0.05416
1197.50251,0.06087
1196.01272,0.05336
1194.52293,0.04507
1193.03314,0.03681
1191.54336,0.03824
1190.05357,0.04666
1188.56378,0.01741
1187.07399,0.00307
1185.58420,0.01711
1184.09441,0.02801
1182.60463,0.03354
1181.11484,0.03910
1179.62505,0.02758
1178.13526,0.03066
1176.64547,0.00367
1175.15568,0.01606
1173.66589,0.00915
1172.17611,0.02223
1170.68632,0.03121
1169.19653,0.04021
1167.70674,0.02865
1166.21695,0.03992
1164.72716,0.05470
1163.23738,0.04480
1161.74759,0.04728
1160.25780,0.08209
1158.76801,0.09523
1157.27822,0.10839
1155.78843,0.11540
1154.29865,0.10818
1152.80886,0.09212
1151.31907,0.10902
1149.82928,0.13640
1148.33949,0.14829
1146.84970,0.14436
1145.35991,0.14046
1143.87013,0.17744
1142.38034,0.16028
1140.89055,0.20080
1139.40076,0.19066
1137.91097,0.22458
1136.42118,0.21290
1134.93140,0.22422
1133.44161,0.23556
1131.95182,0.25405
1130.46203,0.29094
1128.97224,0.26324
1127.48245,0.25741
1125.99266,0.26650
1124.50288,0.25439
1123.01309,0.26179
1121.52330,0.26921
1120.03351,0.29139
1118.54372,0.28444
1117.05393,0.27626
1115.56415,0.28045
1114.07436,0.27359
1112.58457,0.27150
1111.09478,0.26943
1109.60499,0.24712
1108.11520,0.25460
1106.62542,0.27541
1105.13563,0.29974
1103.64584,0.24838
1102.15605,0.23538
1100.66626,0.24172
1099.17647,0.24809
1097.68668,0.25701
1096.19690,0.23112
1094.70711,0.22394
1093.21732,0.21584
1091.72753,0.21504
1090.23774,0.22631
1088.74795,0.23760
1087.25817,0.21914
1085.76838,0.21686
1084.27859,0.21176
1082.78880,0.19686
1081.29901,0.20352
1079.80922,0.21749
1078.31943,0.21835
1076.82965,0.21923
1075.33986,0.22757
1073.85007,0.21630
1072.36028,0.22438
1070.87049,0.25276
1069.38070,0.28243
1067.89092,0.31481
1066.40113,0.34722
1064.91134,0.38266
1063.42155,0.46944
1061.93176,0.56955
1060.44197,0.64181
1058.95219,0.69857
1057.46240,0.75647
1055.97261,0.81439
1054.48282,0.88612
1052.99303,0.97814
1051.50324,0.96408
1050.01345,0.95796
1048.52367,0.99937
1047.03388,0.98000
1045.54409,0.96065
1044.05430,0.93119
1042.56451,0.88908
1041.07472,0.83497
1039.58494,0.72164
1038.09515,0.65902
1036.60536,0.61433
1035.11557,0.56965
1033.62578,0.53023
1032.13599,0.42685
1030.64620,0.38336
1029.15642,0.31392
1027.66663,0.29407
1026.17684,0.27425
1024.68705,0.22991
1023.19726,0.18876
1021.70747,0.18976
1020.21769,0.16767
1018.72790,0.14085
1017.23811,0.13590
1015.74832,0.13099
1014.25853,0.13971
1012.76874,0.14498
1011.27896,0.13285
1009.78917,0.11695
1008.29938,0.08745
1006.80959,0.07397
1005.31980,0.06051
1003.83001,0.03172
1002.34022,0.03621
1000.85044,0.04358
999.36065,0.05065
997.87086,0.05411
996.38107,0.05759
994.89128,0.07994
993.40149,0.08648
991.91171,0.09178
990.42192,0.10565
988.93213,0.12906
987.44234,0.12904
985.95255,0.12905
984.46276,0.13131
982.97297,0.12820
981.48319,0.09851
979.99340,0.08564
978.50361,0.07912
977.01382,0.07263
975.52403,0.05349
974.03424,0.02108
972.54446,0.02923
971.05467,0.01270
969.56488,0.01457
968.07509,0.01504
966.58530,0.01553
965.09551,0.00354
963.60573,0.01912
962.11594,0.03727
960.62615,0.01679
959.13636,0.01123
957.64657,0.00570
956.15678,0.00367
954.66699,0.01698
953.17721,0.02113
951.68742,0.03892
950.19763,0.04961
948.70784,0.06033
947.21805,0.06647
945.72826,0.08183
944.23848,0.09183
942.74869,0.07999
941.25890,0.11063
939.76911,0.12514
938.27932,0.13967
936.78953,0.16563
935.29974,0.17007
933.80996,0.19893
932.32017,0.25410
930.83038,0.25704
929.34059,0.26000
927.85080,0.30859
926.36101,0.32712
924.87123,0.40269
923.38144,0.42761
921.89165,0.46363
920.40186,0.49968
918.91207,0.63996
917.42228,0.78883
915.93250,0.92947
914.44271,1.14047
912.95292,1.22257
911.46313,1.30469
909.97334,1.52526
908.48355,1.67459
906.99376,1.80937
905.50398,1.91567
904.01419,1.92982
902.52440,1.94399
901.03461,2.00000
899.54482,1.94644
898.05503,1.85838
896.56525,1.68324
895.07546,1.50591
893.58567,1.32860
892.09588,1.09557
890.60609,0.85845
889.11630,0.64542
887.62651,0.47202
886.13673,0.40569
884.64694,0.33940
883.15715,0.26615
881.66736,0.18470
880.17757,0.13495
878.68778,0.11578
877.19800,0.09665
875.70821,0.06692
874.21842,0.01093
872.72863,0.00818
871.23884,0.01971
869.74905,0.02002
868.25927,0.02035
866.76948,0.02055
865.27969,0.01602
863.78990,0.01341
862.30011,0.01875
860.81032,0.03821
859.32053,0.05770
857.83075,0.08149
856.34096,0.07140
854.85117,0.09334
853.36138,0.10485
851.87159,0.11416
850.38180,0.12350
848.89202,0.13761
847.40223,0.16411
845.91244,0.17764
844.42265,0.18137
842.93286,0.18514
841.44307,0.19652
839.95329,0.18672
838.46350,0.21367
836.97371,0.24161
835.48392,0.24692
833.99413,0.25225
832.50434,0.22325
831.01455,0.23956
829.52477,0.21694
828.03498,0.17375
826.54519,0.15387
825.05540,0.13401
823.56561,0.13335
822.07582,0.11053
820.58604,0.12005
819.09625,0.11803
817.60646,0.11603
816.11667,0.11105
814.62688,0.11117
813.13709,0.10909
811.64730,0.08866
810.15752,0.10010
808.66773,0.11155
807.17794,0.10862
805.68815,0.10160
804.19836,0.09682
802.70857,0.11154
801.21879,0.12629
799.72900,0.13299
798.23921,0.13401
796.74942,0.09071
795.25963,0.09954
793.76984,0.10839
792.28006,0.12091
790.79027,0.12712
789.30048,0.14476
787.81069,0.20740
786.32090,0.20625
784.83111,0.20511
783.34132,0.23140
781.85154,0.26690
780.36175,0.29863
778.87196,0.31628
777.38217,0.33396
775.89238,0.38825
774.40259,0.39061
772.91281,0.37305
771.42302,0.37546
769.93323,0.37790
768.44344,0.32969
766.95365,0.27263
765.46386,0.23555
763.97407,0.21148
762.48429,0.19013
760.99450,0.16881
759.50471,0.12929
758.01492,0.10786
756.52513,0.10957
755.03534,0.09373
753.54556,0.07791
752.05577,0.06671
750.56598,0.05902
749.07619,0.07004
747.58640,0.06398
746.09661,0.05795
744.60683,0.04687
743.11704,0.04786
741.62725,0.01656
740.13746,0.01332
738.64767,0.01010
737.15788,0.00928
735.66809,0.00817
734.17831,0.00677
732.68852,0.01110
731.19873,0.01545
729.70894,0.00367
728.21915,0.02875
726.72936,0.01395
725.23958,0.01913
723.74979,0.01325
722.26000,0.00739
720.77021,0.00853
719.28042,0.00367
717.79063,0.00448
716.30084,0.00832
714.81106,0.01218
713.32127,0.02415
711.83148,0.03709
710.34169,0.02947
708.85190,0.02646
707.36211,0.02348
705.87233,0.02639
704.38254,0.03977
702.89275,0.05571
701.40296,0.05536
699.91317,0.05504
698.42338,0.06852
696.93360,0.09438
695.44381,0.08669
693.95402,0.10357
692.46423,0.12048
690.97444,0.12394
689.48465,0.17210
687.99486,0.16580
686.50508,0.18122
685.01529,0.19667
683.52550,0.20501
682.03571,0.21496
680.54592,0.26421
679.05613,0.27485
677.56635,0.28551
676.07656,0.29398
674.58677,0.28188
673.09698,0.22451
671.60719,0.23131
670.11740,0.23814
668.62761,0.19827
667.13783,0.18503
665.64804,0.16659
664.15825,0.14817
662.66846,0.12899
661.17867,0.11395
659.68888,0.08943
658.19910,0.06683
656.70931,0.04427
655.21952,0.03693
653.72973,0.06572
652.23994,0.05938
650.75015,0.06478
649.26037,0.07021
647.77058,0.05223
646.28079,0.03236
644.79100,0.02013
643.30121,0.01964
641.81142,0.01917
640.32163,0.04090
638.83185,0.02212
637.34206,0.00367
635.85227,0.00651
634.36248,0.00938
632.87269,0.00530
631.38290,0.01803
629.89312,0.00577
628.40333,0.00968
626.91354,0.01362
625.42375,0.02044
623.93396,0.00891
622.44417,0.01593
620.95438,0.02298
619.46460,0.03749
617.97481,0.03905
616.48502,0.04918
614.99523,0.05268
613.50544,0.05621
612.01565,0.13293
610.52587,0.16407
609.03608,0.20536
607.54629,0.20598
606.05650,0.20662
604.56671,0.24894
603.07692,0.31409
601.58714,0.31956
600.09735,0.32506
598.60756,0.37223
597.11777,0.37159
595.62798,0.37953
594.13819,0.38418
592.64840,0.38884
591.15862,0.34080
589.66883,0.30861
588.17904,0.26283
586.68925,0.24400
585.19946,0.22520
583.70967,0.19374
582.21989,0.13064
580.73010,0.11159
579.24031,0.09257
577.75052,0.05963
576.26073,0.04731
574.77094,0.02741
573.28115,0.02828
571.79137,0.02917
570.30158,0.01315
568.81179,0.04276
567.32200,0.06590
565.83221,0.08907
564.34242,0.11083
562.85264,0.11299
561.36285,0.13797
559.87306,0.13954
558.38327,0.14113
556.89348,0.15003
555.40369,0.16878
553.91391,0.17092
552.42412,0.17309
550.93433,0.17164
549.44454,0.19080
547.95475,0.20587
546.46496,0.20893
544.97517,0.21201
543.48539,0.22494
541.99560,0.23568
540.50581,0.26607
539.01602,0.29650
537.52623,0.33454
536.03644,0.38719
534.54666,0.38791
533.05687,0.40592
531.56708,0.42395
530.07729,0.47416
528.58750,0.52630
527.09771,0.55422
525.60792,0.58218
524.11814,0.62076
522.62835,0.65083
521.13856,0.71702
519.64877,0.74079
518.15898,0.76459
516.66919,0.81281
515.17941,0.80308
513.68962,0.80178
512.19983,0.80049
510.71004,0.76930
509.22025,0.70932
507.73046,0.62876
506.24068,0.59559
504.75089,0.56244
503.26110,0.45124
501.77131,0.35336
500.28152,0.31585
498.79173,0.27837
497.30194,0.20179
495.81216,0.18225
494.32237,0.17936
492.83258,0.17650
491.34279,0.10731
489.85300,0.06506
488.36321,0.04311
486.87343,0.04431
485.38364,0.04553
483.89385,0.05185
482.40406,0.09334
480.91427,0.10256
479.42448,0.11180
477.93469,0.12867
476.44491,0.11483
474.95512,0.14363
473.46533,0.17244
471.97554,0.16819
470.48575,0.14495
468.99596,0.16608
467.50618,0.16491
466.01639,0.16376
464.52660,0.14569
463.03681,0.11719
461.54702,0.10994
460.05723,0.10272
458.56745,0.06986
457.07766,0.06015
455.58787,0.05268
454.09808,0.04523
452.60829,0.03338
451.11850,0.00730
449.62871,0.00547
448.13893,0.00367
446.64914,0.01323
445.15935,0.01839
443.66956,0.04447
442.17977,0.04999
440.68998,0.05554
439.20020,0.04622
437.71041,0.05752
436.22062,0.04571
434.73083,0.03394
433.24104,0.04562
431.75125,0.07381
430.26146,0.06828
428.77168,0.06278
427.28189,0.03529
425.79210,0.02778
424.30231,0.03059
422.81252,0.03342
421.32273,0.03897
419.83295,0.03409
418.34316,0.03161
416.85337,0.02916
415.36358,0.04210
413.87379,0.06962
412.38400,0.05774
410.89422,0.04589
409.40443,0.05829
407.91464,0.05772
406.42485,0.04864
404.93506,0.04432
403.44527,0.04003
401.95548,0.04875
400.46570,0.02963
398.97591,0.03175
397.48612,0.03389
395.99633,0.04081
394.50654,0.01513
393.01675,0.03810
391.52697,0.05703
390.03718,0.02801
388.54739,0.05760
387.05760,0.04351
385.56781,0.02944
384.07802,0.03440
382.58824,0.02545
381.09845,0.01495
379.60866,0.00446
378.11887,0.00367
376.62908,0.01371
375.13929,0.01840
373.64950,0.02311
372.15972,0.03481
370.66993,0.04337
369.18014,0.05416
367.69035,0.06497
366.20056,0.05459
364.71077,0.04677
363.22099,0.04911
361.73120,0.05147
360.24141,0.05006
358.75162,0.06261
357.26183,0.06932
355.77204,0.07606
354.28225,0.05733
352.79247,0.09152
351.30268,0.10783
349.81289,0.12417
348.32310,0.11789
346.83331,0.11575
345.34352,0.10001
343.85374,0.08430
342.36395,0.07780
340.87416,0.02096
339.38437,0.03102
337.89458,0.04111
336.40479,0.04219
334.91501,0.03759
333.42522,0.03809
331.93543,0.03861
330.44564,0.04930
328.95585,0.02136
327.46606,0.04001
325.97627,0.05869
324.48649,0.05648
322.99670,0.01154
321.50691,0.02011
320.01712,0.02870
318.52733,0.04793
317.03754,0.08904
315.54776,0.08947
314.05797,0.08992
312.56818,0.14061
311.07839,0.13811
309.58860,0.11900
308.09881,0.09991
306.60902,0.06613
305.11924,0.05929
303.62945,0.03869
302.13966,0.01813
300.64987,0.03227
299.16008,0.00367
