1778.52000,0.01383
1777.03021,0.00615
1775.54042,0.00203
1774.05063,0.00640
1772.56085,0.02046
1771.07106,0.01523
1769.58127,0.02368
1768.09148,0.01991
1766.60169,0.01263
1765.11190,0.01786
1763.62212,0.01511
1762.13233,0.01025
1760.64254,0.01390
1759.15275,0.02394
1757.66296,0.01280
1756.17317,0.01982
1754.68339,0.01697
1753.19360,0.01202
1751.70381,0.01417
1750.21402,0.00880
1748.72423,0.01358
1747.23444,0.01627
1745.74465,0.01050
1744.25487,0.01442
1742.76508,0.01882
1741.27529,0.01030
1739.78550,0.00675
1738.29571,0.02496
1736.80592,0.02153
1735.31614,0.02072
1733.82635,0.02158
1732.33656,0.00880
1730.84677,0.01724
1729.35698,0.01723
1727.86719,0.02006
1726.37740,0.02387
1724.88762,0.01498
1723.39783,0.01647
1721.90804,0.00951
1720.41825,0.01106
1718.92846,0.00203
1717.43867,0.01714
1715.94889,0.03015
1714.45910,0.03094
1712.96931,0.01646
1711.47952,0.01753
1709.98973,0.00592
1708.49994,0.01128
1707.01016,0.01031
1705.52037,0.00936
1704.03058,0.00373
1702.54079,0.01625
1701.05100,0.02173
1699.56121,0.02182
1698.07142,0.00380
1696.58164,0.00418
1695.09185,0.02294
1693.60206,0.00452
1692.11227,0.01368
1690.62248,0.00426
1689.13269,0.01370
1687.64291,0.01633
1686.15312,0.00887
1684.66333,0.01932
1683.17354,0.01355
1681.68375,0.01039
1680.19396,0.01691
1678.70417,0.02322
1677.21439,0.01496
1675.72460,0.00907
1674.23481,0.01687
1672.74502,0.02256
1671.25523,0.02122
1669.76544,0.03380
1668.27566,0.03698
1666.78587,0.03830
1665.29608,0.04271
1663.80629,0.04784
1662.31650,0.04193
1660.82671,0.04923
1659.33693,0.04549
1657.84714,0.05002
1656.35735,0.04256
1654.86756,0.04995
1653.37777,0.04913
1651.88798,0.04857
1650.39819,0.05510
1648.90841,0.05482
1647.41862,0.05716
1645.92883,0.05787
1644.43904,0.05861
1642.94925,0.05513
1641.45946,0.07027
1639.96968,0.06307
1638.47989,0.06273
1636.99010,0.06876
1635.50031,0.06352
1634.01052,0.06466
1632.52073,0.07453
1631.03094,0.09526
1629.54116,0.08611
1628.05137,0.07510
1626.56158,0.06552
1625.07179,0.05809
1623.58200,0.05986
1622.09221,0.04942
1620.60243,0.06560
1619.11264,0.06981
1617.62285,0.06956
1616.13306,0.05779
1614.64327,0.07102
1613.15348,0.07814
1611.66370,0.08434
1610.17391,0.07362
1608.68412,0.08599
1607.19433,0.09227
1605.70454,0.09739
1604.21475,0.09159
1602.72496,0.08581
1601.23518,0.07522
1599.74539,0.09104
1598.25560,0.07862
1596.76581,0.07281
1595.27602,0.07928
1593.78623,0.08883
1592.29645,0.07863
1590.80666,0.07480
1589.31687,0.06724
1587.82708,0.06864
1586.33729,0.07690
1584.84750,0.08659
1583.35771,0.08995
1581.86793,0.08604
1580.37814,0.08474
1578.88835,0.06038
1577.39856,0.06501
1575.90877,0.07438
1574.41898,0.06894
1572.92920,0.05009
1571.43941,0.05835
1569.94962,0.05733
1568.45983,0.05634
1566.97004,0.06020
1565.48025,0.04053
1563.99047,0.03949
1562.50068,0.03047
1561.01089,0.03725
1559.52110,0.03392
1558.03131,0.02121
1556.54152,0.01510
1555.05173,0.02787
1553.56195,0.02016
1552.07216,0.03179
1550.58237,0.02579
1549.09258,0.01298
1547.60279,0.00419
1546.11300,0.00203
1544.62322,0.02048
1543.13343,0.01753
1541.64364,0.01672
1540.15385,0.01429
1538.66406,0.01188
1537.17427,0.00949
1535.68448,0.01043
1534.19470,0.02128
1532.70491,0.00719
1531.21512,0.00466
1529.72533,0.01111
1528.23554,0.01593
1526.74575,0.02078
1525.25597,0.03837
1523.76618,0.03149
1522.27639,0.03876
1520.78660,0.03028
1519.29681,0.03689
1517.80702,0.03223
1516.31724,0.04689
1514.82745,0.04863
1513.33766,0.04369
1511.84787,0.03876
1510.35808,0.04670
1508.86829,0.04311
1507.37850,0.04804
1505.88872,0.04709
1504.39893,0.05418
1502.90914,0.04669
1501.41935,0.04582
1499.92956,0.06522
1498.43977,0.05804
1496.94999,0.06007
1495.46020,0.08001
1493.97041,0.08821
1492.48062,0.10208
1490.99083,0.09949
1489.50104,0.10847
1488.01125,0.10793
1486.52147,0.10741
1485.03168,0.11669
1483.54189,0.13023
1482.05210,0.12237
1480.56231,0.14538
1479.07252,0.15146
1477.58274,0.16228
1476.09295,0.14792
1474.60316,0.17597
1473.11337,0.18803
1471.62358,0.18834
1470.13379,0.17360
1468.64401,0.18597
1467.15422,0.21744
1465.66443,0.21949
1464.17464,0.22157
1462.68485,0.24722
1461.19506,0.28326
1459.70527,0.32686
1458.21549,0.36412
1456.72570,0.40282
1455.23591,0.45072
1453.74612,0.47769
1452.25633,0.52235
1450.76654,0.57457
1449.27676,0.59337
1447.78697,0.58700
1446.29718,0.58253
1444.80739,0.56796
1443.31760,0.55342
1441.82781,0.53184
1440.33802,0.46836
1438.84824,0.43670
1437.35845,0.42508
1435.86866,0.42643
1434.37887,0.41792
1432.88908,0.47654
1431.39929,0.48480
1429.90951,0.53829
1428.41972,0.61370
1426.92993,0.70045
1425.44014,0.75849
1423.95035,0.77593
1422.46056,0.79339
1420.97078,0.82559
1419.48099,0.84040
1417.99120,0.85758
1416.50141,0.81426
1415.01162,0.79853
1413.52183,0.76797
1412.03204,0.70095
1410.54226,0.63747
1409.05247,0.59075
1407.56268,0.52921
1406.07289,0.46957
1404.58310,0.46177
1403.09331,0.45400
1401.60353,0.38125
1400.11374,0.34338
1398.62395,0.31612
1397.13416,0.28254
1395.64437,0.21342
1394.15458,0.19307
1392.66479,0.17933
1391.17501,0.14820
1389.68522,0.11238
1388.19543,0.08364
1386.70564,0.07625
1385.21585,0.06887
1383.72606,0.06258
1382.23628,0.02782
1380.74649,0.03265
1379.25670,0.01041
1377.76691,0.01505
1376.27712,0.01524
1374.78733,0.01239
1373.29755,0.00203
1371.80776,0.00590
1370.31797,0.01428
1368.82818,0.00890
1367.33839,0.00354
1365.84860,0.01290
1364.35881,0.02133
1362.86903,0.03144
1361.37924,0.04864
1359.88945,0.05596
1358.39966,0.08169
1356.90987,0.11850
1355.42008,0.17370
1353.93030,0.20868
1352.44051,0.23614
1350.95072,0.26363
1349.46093,0.33612
1347.97114,0.37543
1346.48135,0.43172
1344.99156,0.51818
1343.50178,0.58417
1342.01199,0.62711
1340.52220,0.68726
1339.03241,0.71588
1337.54262,0.77420
1336.05283,0.79910
1334.56305,0.82403
1333.07326,0.82331
1331.58347,0.82096
1330.09368,0.77037
1328.60389,0.73439
1327.11410,0.75567
1325.62432,0.77462
1324.13453,0.73448
1322.64474,0.70331
1321.15495,0.63213
1319.66516,0.61267
1318.17537,0.59323
1316.68558,0.55957
1315.19580,0.50309
1313.70601,0.45182
1312.21622,0.43400
1310.72643,0.41033
1309.23664,0.40410
1307.74685,0.33620
1306.25707,0.30153
1304.76728,0.28737
1303.27749,0.27323
1301.78770,0.26030
1300.29791,0.22525
1298.80812,0.18928
1297.31834,0.14510
1295.82855,0.14144
1294.33876,0.11002
1292.84897,0.09087
1291.35918,0.07363
1289.86939,0.07360
1288.37960,0.07359
1286.88982,0.07196
1285.40003,0.07012
1283.91024,0.06030
1282.42045,0.06674
1280.93066,0.05532
1279.44087,0.04298
1277.95109,0.02759
1276.46130,0.02754
1274.97151,0.02328
1273.48172,0.01904
1271.99193,0.02966
1270.50214,0.01675
1269.01235,0.02153
1267.52257,0.02162
1266.03278,0.00737
1264.54299,0.00492
1263.05320,0.01309
1261.56341,0.01646
1260.07362,0.01985
1258.58384,0.02244
1257.09405,0.02035
1255.60426,0.00203
1254.11447,0.00573
1252.62468,0.01465
1251.13489,0.01487
1249.64511,0.01018
1248.15532,0.02693
1246.66553,0.02016
1245.17574,0.01342
1243.68595,0.02601
1242.19616,0.01578
1240.70637,0.01782
1239.21659,0.00175
1237.72680,0.00996
1236.23701,0.01772
1234.74722,0.01656
1233.25743,0.01436
1231.76764,0.01219
1230.27786,0.01063
1228.78807,0.00203
1227.29828,0.01465
1225.80849,0.03531
1224.31870,0.01337
1222.82891,0.02842
1221.33912,0.02631
1219.84934,0.02787
1218.35955,0.02945
1216.86976,0.03282
1215.37997,0.02821
1213.89018,0.04341
1212.40039,0.04379
1210.91061,0.05598
1209.42082,0.03945
1207.93103,0.04026
1206.44124,0.04109
1204.95145,0.04348
1203.46166,0.03883
1201.97188,0.03585
1200.48209,0.02182
1198.99230,0.03113
1197.50251,0.04659
1196.01272,0.03711
1194.52293,0.03778
1193.03314,0.03847
1191.54336,0.01776
1190.05357,0.00602
1188.56378,0.00302
1187.07399,0.01958
1185.58420,0.01851
1184.09441,0.01440
1182.60463,0.01809
1181.11484,0.02180
1179.62505,0.01305
1178.13526,0.00480
1176.64547,0.00576
1175.15568,0.00203
1173.66589,0.01109
1172.17611,0.00628
1170.68632,0.00974
1169.19653,0.01323
1167.70674,0.01226
1166.21695,0.01438
1164.72716,0.00922
1163.23738,0.01045
1161.74759,0.02324
1160.25780,0.05818
1158.76801,0.06431
1157.27822,0.07045
1155.78843,0.07981
1154.29865,0.07599
1152.80886,0.06702
1151.31907,0.07621
1149.82928,0.09743
1148.33949,0.11043
1146.84970,0.10956
1145.35991,0.10872
1143.87013,0.11590
1142.38034,0.11911
1140.89055,0.11975
1139.40076,0.15173
1137.91097,0.15690
1136.42118,0.16938
1134.93140,0.18860
1133.44161,0.20785
1131.95182,0.21946
1130.46203,0.22262
1128.97224,0.22628
1127.48245,0.21489
1125.99266,0.20258
1124.50288,0.21832
1123.01309,0.23443
1121.52330,0.25057
1120.03351,0.24731
1118.54372,0.23464
1117.05393,0.22719
1115.56415,0.24778
1114.07436,0.22318
1112.58457,0.21815
1111.09478,0.21314
1109.60499,0.20887
1108.11520,0.21027
1106.62542,0.22087
1105.13563,0.21643
1103.64584,0.21249
1102.15605,0.21021
1100.66626,0.20655
1099.17647,0.20291
1097.68668,0.20165
1096.19690,0.19288
1094.70711,0.18343
1093.21732,0.17117
1091.72753,0.17425
1090.23774,0.18547
1088.74795,0.19671
1087.25817,0.15983
1085.76838,0.15075
1084.27859,0.15135
1082.78880,0.14845
1081.29901,0.16558
1079.80922,0.16296
1078.31943,0.15754
1076.82965,0.15214
1075.33986,0.16042
1073.85007,0.17131
1072.36028,0.18011
1070.87049,0.20095
1069.38070,0.22911
1067.89092,0.24528
1066.40113,0.26147
1064.91134,0.30030
1063.42155,0.34457
1061.93176,0.42159
1060.44197,0.47085
1058.95219,0.52201
1057.46240,0.56119
1055.97261,0.60040
1054.48282,0.69167
1052.99303,0.75235
1051.50324,0.76667
1050.01345,0.77771
1048.52367,0.77347
1047.03388,0.76525
1045.54409,0.75705
1044.05430,0.72815
1042.56451,0.69221
1041.07472,0.64453
1039.58494,0.57661
1038.09515,0.51837
1036.60536,0.50290
1035.11557,0.48745
1033.62578,0.43376
1032.13599,0.37962
1030.64620,0.33139
1029.15642,0.28978
1027.66663,0.26551
1026.17684,0.24125
1024.68705,0.21172
1023.19726,0.19423
1021.70747,0.14991
1020.21769,0.13882
1018.72790,0.10892
1017.23811,0.10671
1015.74832,0.10452
1014.25853,0.08528
1012.76874,0.08444
1011.27896,0.07655
1009.78917,0.04632
1008.29938,0.05002
1006.80959,0.04727
1005.31980,0.04455
1003.83001,0.02760
1002.34022,0.02904
1000.85044,0.03757
999.36065,0.01621
997.87086,0.01738
996.38107,0.01856
994.89128,0.03778
993.40149,0.05938
991.91171,0.07418
990.42192,0.08170
988.93213,0.10855
987.44234,0.10046
985.95255,0.09239
984.46276,0.10613
982.97297,0.09375
981.48319,0.06703
979.99340,0.05753
978.50361,0.04934
977.01382,0.04118
975.52403,0.03128
974.03424,0.01857
972.54446,0.01955
971.05467,0.02832
969.56488,0.00203
968.07509,0.00219
966.58530,0.00238
965.09551,0.00777
963.60573,0.01742
962.11594,0.00873
960.62615,0.00124
959.13636,0.00093
957.64657,0.00064
956.15678,0.00504
954.66699,0.01134
953.17721,0.02708
951.68742,0.04050
950.19763,0.04240
948.70784,0.04432
947.21805,0.05239
945.72826,0.08404
944.23848,0.07897
942.74869,0.09770
941.25890,0.11741
939.76911,0.12242
938.27932,0.12745
936.78953,0.15335
935.29974,0.16043
933.80996,0.20381
932.32017,0.21047
930.83038,0.21244
929.34059,0.21444
927.85080,0.25225
926.36101,0.27949
924.87123,0.30605
923.38144,0.32863
921.89165,0.36666
920.40186,0.40472
918.91207,0.50367
917.42228,0.61630
915.93250,0.75085
914.44271,0.95231
912.95292,1.07455
911.46313,1.19682
909.97334,1.39882
908.48355,1.58766
906.99376,1.77346
905.50398,1.89758
904.01419,1.93507
902.52440,1.97259
901.03461,2.00000
899.54482,1.99706
898.05503,1.89500
896.56525,1.64366
895.07546,1.50974
893.58567,1.37585
892.09588,1.12953
890.60609,0.87005
889.11630,0.66051
887.62651,0.45406
886.13673,0.39694
884.64694,0.33984
883.15715,0.24320
881.66736,0.17225
880.17757,0.10297
878.68778,0.08835
877.19800,0.07376
875.70821,0.04741
874.21842,0.03593
872.72863,0.01198
871.23884,0.01703
869.74905,0.01904
868.25927,0.02107
866.76948,0.01535
865.27969,0.01225
863.78990,0.02448
862.30011,0.02685
860.81032,0.03182
859.32053,0.03682
857.83075,0.06187
856.34096,0.06621
854.85117,0.06586
853.36138,0.07779
851.87159,0.07938
850.38180,0.08099
848.89202,0.09864
847.40223,0.12808
845.91244,0.12600
844.42265,0.13795
842.93286,0.14992
841.44307,0.16110
839.95329,0.16028
838.46350,0.15149
836.97371,0.19170
835.48392,0.18366
833.99413,0.17564
832.50434,0.18343
831.01455,0.17334
829.52477,0.15786
828.03498,0.13486
826.54519,0.13368
825.05540,0.13251
823.56561,0.11454
822.07582,0.11260
820.58604,0.10079
819.09625,0.09701
817.60646,0.09326
816.11667,0.09189
814.62688,0.08489
813.13709,0.08568
811.64730,0.09804
810.15752,0.08593
808.66773,0.07384
807.17794,0.08392
805.68815,0.08836
804.19836,0.07729
802.70857,0.09721
801.21879,0.11715
799.72900,0.09696
798.23921,0.07444
796.74942,0.07574
795.25963,0.07587
793.76984,0.07603
792.28006,0.07669
790.79027,0.08514
789.30048,0.12376
787.81069,0.14921
786.32090,0.16092
784.83111,0.17264
783.34132,0.18969
781.85154,0.20817
780.36175,0.25306
778.87196,0.26311
777.38217,0.27319
775.89238,0.28588
774.40259,0.31720
772.91281,0.29886
771.42302,0.28242
769.93323,0.26601
768.44344,0.22866
766.95365,0.17274
765.46386,0.17264
763.97407,0.11276
762.48429,0.10565
760.99450,0.09857
759.50471,0.08962
758.01492,0.07881
756.52513,0.06662
755.03534,0.06811
753.54556,0.06962
752.05577,0.03230
750.56598,0.04139
749.07619,0.03850
747.58640,0.03575
746.09661,0.03302
744.60683,0.01819
743.11704,0.02364
741.62725,0.00203
740.13746,0.00423
738.64767,0.00646
737.15788,0.00553
735.66809,0.00816
734.17831,0.00092
732.68852,0.00805
731.19873,0.01520
729.70894,0.00813
728.21915,0.00203
726.72936,0.00324
725.23958,0.00235
723.74979,0.00774
722.26000,0.01316
720.77021,0.00000
719.28042,0.01190
717.79063,0.01111
716.30084,0.01376
714.81106,0.01643
713.32127,0.01689
711.83148,0.02114
710.34169,0.01387
708.85190,0.01899
707.36211,0.02414
705.87233,0.02236
704.38254,0.03662
702.89275,0.03960
701.40296,0.04554
699.91317,0.05152
698.42338,0.06799
696.93360,0.08519
695.44381,0.09512
693.95402,0.10425
692.46423,0.11340
690.97444,0.12316
689.48465,0.14260
687.99486,0.15077
686.50508,0.17049
685.01529,0.19024
683.52550,0.19565
682.03571,0.22157
680.54592,0.24681
679.05613,0.25146
677.56635,0.25614
676.07656,0.27250
674.58677,0.26110
673.09698,0.21793
671.60719,0.21234
670.11740,0.20678
668.62761,0.20230
667.13783,0.16605
665.64804,0.15197
664.15825,0.13790
662.66846,0.11492
661.17867,0.07806
659.68888,0.06030
658.19910,0.05752
656.70931,0.05476
655.21952,0.04296
653.72973,0.03895
652.23994,0.06346
650.75015,0.04961
649.26037,0.03579
647.77058,0.04672
646.28079,0.03718
644.79100,0.02719
643.30121,0.03148
641.81142,0.03579
640.32163,0.05248
638.83185,0.03129
637.34206,0.00305
635.85227,0.00253
634.36248,0.00203
632.87269,0.00593
631.38290,0.02257
629.89312,0.01569
628.40333,0.01507
626.91354,0.01448
625.42375,0.01143
623.93396,0.00535
622.44417,0.02108
620.95438,0.03683
619.46460,0.04236
617.97481,0.03590
616.48502,0.05373
614.99523,0.06345
613.50544,0.07320
612.01565,0.10593
610.52587,0.15940
609.03608,0.17334
607.54629,0.18766
606.05650,0.20200
604.56671,0.25180
603.07692,0.28444
601.58714,0.30027
600.09735,0.31611
598.60756,0.33940
597.11777,0.35589
595.62798,0.36486
594.13819,0.35514
592.64840,0.34543
591.15862,0.30361
589.66883,0.27218
588.17904,0.25348
586.68925,0.22821
585.19946,0.20297
583.70967,0.15326
582.21989,0.10428
580.73010,0.08170
579.24031,0.05915
577.75052,0.06487
576.26073,0.04401
574.77094,0.03660
573.28115,0.02332
571.79137,0.01007
570.30158,0.01945
568.81179,0.03827
567.32200,0.05334
565.83221,0.06845
564.34242,0.06450
562.85264,0.09071
561.36285,0.09434
559.87306,0.11331
558.38327,0.13230
556.89348,0.11716
555.40369,0.10652
553.91391,0.11251
552.42412,0.11853
550.93433,0.10773
549.44454,0.11602
547.95475,0.13541
546.46496,0.13399
544.97517,0.13258
543.48539,0.15463
541.99560,0.21227
540.50581,0.21965
539.01602,0.22705
537.52623,0.26145
536.03644,0.28503
534.54666,0.31994
533.05687,0.34334
531.56708,0.36676
530.07729,0.42152
528.58750,0.49067
527.09771,0.51086
525.60792,0.53108
524.11814,0.58312
522.62835,0.65707
521.13856,0.71009
519.64877,0.73476
518.15898,0.75946
516.66919,0.79371
515.17941,0.78160
513.68962,0.77398
512.19983,0.76639
510.71004,0.76142
509.22025,0.66957
507.73046,0.62060
506.24068,0.56719
504.75089,0.51380
503.26110,0.43947
501.77131,0.32490
500.28152,0.27546
498.79173,0.22605
497.30194,0.18361
495.81216,0.15532
494.32237,0.14884
492.83258,0.14239
491.34279,0.09439
489.85300,0.07326
488.36321,0.04910
486.87343,0.04156
485.38364,0.03404
483.89385,0.06858
482.40406,0.07583
480.91427,0.08829
479.42448,0.10077
477.93469,0.10691
476.44491,0.11308
474.95512,0.12598
473.46533,0.13891
471.97554,0.13314
470.48575,0.14058
468.99596,0.13392
467.50618,0.12892
466.01639,0.12395
464.52660,0.09146
463.03681,0.05663
461.54702,0.05515
460.05723,0.05369
458.56745,0.03212
457.07766,0.02800
455.58787,0.02602
454.09808,0.02407
452.60829,0.03345
451.11850,0.00634
449.62871,0.00594
448.13893,0.00555
446.64914,0.00554
445.15935,0.00203
443.66956,0.01959
442.17977,0.02506
440.68998,0.03054
439.20020,0.03617
437.71041,0.01686
436.22062,0.01948
434.73083,0.02212
433.24104,0.02525
431.75125,0.04042
430.26146,0.03783
428.77168,0.03526
427.28189,0.03166
425.79210,0.00430
424.30231,0.01617
422.81252,0.02807
421.32273,0.04482
419.83295,0.02085
418.34316,0.02422
416.85337,0.02762
415.36358,0.01714
413.87379,0.04390
412.38400,0.03689
410.89422,0.02990
409.40443,0.04919
407.91464,0.02989
406.42485,0.03062
404.93506,0.03739
403.44527,0.04418
401.95548,0.03015
400.46570,0.01803
398.97591,0.02477
397.48612,0.03154
395.99633,0.01572
394.50654,0.02371
393.01675,0.02396
391.52697,0.02423
390.03718,0.01839
388.54739,0.04159
387.05760,0.03549
385.56781,0.02941
384.07802,0.03455
382.58824,0.00203
381.09845,0.00887
379.60866,0.01575
378.11887,0.02771
376.62908,0.01426
375.13929,0.01755
373.64950,0.02087
372.15972,0.02634
370.66993,0.03135
369.18014,0.02497
367.69035,0.01861
366.20056,0.02729
364.71077,0.04305
363.22099,0.04436
361.73120,0.04569
360.24141,0.03538
358.75162,0.02746
357.26183,0.01473
355.77204,0.00203
354.28225,0.04139
352.79247,0.04616
351.30268,0.06179
349.81289,0.07744
348.32310,0.06415
346.83331,0.05654
345.34352,0.06214
343.85374,0.06776
342.36395,0.04891
340.87416,0.03998
339.38437,0.02695
337.89458,0.01395
336.40479,0.00203
334.91501,0.03434
333.42522,0.03654
331.93543,0.03876
330.44564,0.02735
328.95585,0.02656
327.46606,0.04416
325.97627,0.06179
324.48649,0.04553
322.99670,0.05119
321.50691,0.05452
320.01712,0.05788
318.52733,0.08292
317.03754,0.07290
315.54776,0.09034
314.05797,0.10780
312.56818,0.10115
311.07839,0.13267
309.58860,0.11676
308.09881,0.10088
306.60902,0.07643
305.11924,0.06118
303.62945,0.04514
302.13966,0.02912
300.64987,0.00217
299.16008,0.00203
