1778.52000,0.01151
1777.03021,0.01093
1775.54042,0.01266
1774.05063,0.00145
1772.56085,0.01009
1771.07106,0.01214
1769.58127,0.01854
1768.09148,0.01226
1766.60169,0.00753
1765.11190,0.01680
1763.62212,0.00881
1762.13233,0.01940
1760.64254,0.02239
1759.15275,0.01524
1757.66296,0.01727
1756.17317,0.00534
1754.68339,0.01071
1753.19360,0.01789
1751.70381,0.00756
1750.21402,0.01301
1748.72423,0.01061
1747.23444,0.00391
1745.74465,0.01207
1744.25487,0.01948
1742.76508,0.01193
1741.27529,0.01178
1739.78550,0.01597
1738.29571,0.00976
1736.80592,0.02264
1735.31614,0.01928
1733.82635,0.01238
1732.33656,0.01873
1730.84677,0.01214
1729.35698,0.01269
1727.86719,0.00767
1726.37740,0.00547
1724.88762,0.00000
1723.39783,0.01106
1721.90804,0.00920
1720.41825,0.01167
1718.92846,0.00579
1717.43867,0.00145
1715.94889,0.02274
1714.45910,0.01966
1712.96931,0.01889
1711.47952,0.01713
1709.98973,0.02023
1708.49994,0.01471
1707.01016,0.00807
1705.52037,0.00145
1704.03058,0.02698
1702.54079,0.01441
1701.05100,0.01560
1699.56121,0.02417
1698.07142,0.02109
1696.58164,0.02539
1695.09185,0.03684
1693.60206,0.02645
1692.11227,0.03109
1690.62248,0.04057
1689.13269,0.03662
1687.64291,0.04590
1686.15312,0.03767
1684.66333,0.04776
1683.17354,0.04416
1681.68375,0.04465
1680.19396,0.04465
1678.70417,0.04468
1677.21439,0.06074
1675.72460,0.06335
1674.23481,0.05533
1672.74502,0.05545
1671.25523,0.06170
1669.76544,0.07128
1668.27566,0.08469
1666.78587,0.08949
1665.29608,0.07500
1663.80629,0.08594
1662.31650,0.10708
1660.82671,0.10105
1659.33693,0.10800
1657.84714,0.09465
1656.35735,0.09251
1654.86756,0.10106
1653.37777,0.09058
1651.88798,0.09435
1650.39819,0.07808
1648.90841,0.09740
1647.41862,0.09363
1645.92883,0.09686
1644.43904,0.10012
1642.94925,0.09007
1641.45946,0.09148
1639.96968,0.08910
1638.47989,0.09716
1636.99010,0.09609
1635.50031,0.10268
1634.01052,0.10599
1632.52073,0.09814
1631.03094,0.10327
1629.54116,0.10030
1628.05137,0.10294
1626.56158,0.08630
1625.07179,0.06816
1623.58200,0.08307
1622.09221,0.07768
1620.60243,0.09188
1619.11264,0.10331
1617.62285,0.10003
1616.13306,0.09956
1614.64327,0.08642
1613.15348,0.10024
1611.66370,0.10899
1610.17391,0.10228
1608.68412,0.09813
1607.19433,0.09476
1605.70454,0.10031
1604.21475,0.08874
1602.72496,0.07719
1601.23518,0.08790
1599.74539,0.09304
1598.25560,0.09974
1596.76581,0.10213
1595.27602,0.09261
1593.78623,0.09582
1592.29645,0.09474
1590.80666,0.07894
1589.31687,0.07994
1587.82708,0.08146
1586.33729,0.07768
1584.84750,0.09298
1583.35771,0.08239
1581.86793,0.09265
1580.37814,0.07652
1578.88835,0.07185
1577.39856,0.06592
1575.90877,0.05799
1574.41898,0.05695
1572.92920,0.05542
1571.43941,0.06332
1569.94962,0.05968
1568.45983,0.05607
1566.97004,0.03228
1565.48025,0.02960
1563.99047,0.02695
1562.50068,0.02915
1561.01089,0.03316
1559.52110,0.04659
1558.03131,0.03667
1556.54152,0.01508
1555.05173,0.02681
1553.56195,0.02560
1552.07216,0.01146
1550.58237,0.01640
1549.09258,0.00790
1547.60279,0.00145
1546.11300,0.00775
1544.62322,0.00747
1543.13343,0.01458
1541.64364,0.02069
1540.15385,0.01756
1538.66406,0.01446
1537.17427,0.01226
1535.68448,0.01467
1534.19470,0.00770
1532.70491,0.00456
1531.21512,0.00145
1529.72533,0.02254
1528.23554,0.02027
1526.74575,0.02921
1525.25597,0.04148
1523.76618,0.05276
1522.27639,0.02620
1520.78660,0.04718
1519.29681,0.03642
1517.80702,0.03382
1516.31724,0.03582
1514.82745,0.05334
1513.33766,0.04662
1511.84787,0.03993
1510.35808,0.04126
1508.86829,0.06066
1507.37850,0.04985
1505.88872,0.05812
1504.39893,0.03872
1502.90914,0.05034
1501.41935,0.05283
1499.92956,0.07416
1498.43977,0.06705
1496.94999,0.08538
1495.46020,0.09737
1493.97041,0.11168
1492.48062,0.10772
1490.99083,0.10938
1489.50104,0.14510
1488.01125,0.14935
1486.52147,0.15361
1485.03168,0.16909
1483.54189,0.20390
1482.05210,0.20087
1480.56231,0.22633
1479.07252,0.26019
1477.58274,0.24784
1476.09295,0.26117
1474.60316,0.27605
1473.11337,0.28004
1471.62358,0.29319
1470.13379,0.30205
1468.64401,0.29365
1467.15422,0.32848
1465.66443,0.34516
1464.17464,0.36187
1462.68485,0.40693
1461.19506,0.43270
1459.70527,0.48391
1458.21549,0.55725
1456.72570,0.58132
1455.23591,0.65649
1453.74612,0.72126
1452.25633,0.76827
1450.76654,0.80388
1449.27676,0.79733
1447.78697,0.77530
1446.29718,0.76855
1444.80739,0.75775
1443.31760,0.74698
1441.82781,0.66992
1440.33802,0.61601
1438.84824,0.60429
1437.35845,0.57584
1435.86866,0.55604
1434.37887,0.53729
1432.88908,0.59885
1431.39929,0.63909
1429.90951,0.68850
1428.41972,0.76894
1426.92993,0.87024
1425.44014,0.94488
1423.95035,0.96377
1422.46056,0.98269
1420.97078,1.02108
1419.48099,1.05948
1417.99120,1.04735
1416.50141,1.02407
1415.01162,0.98607
1413.52183,0.94098
1412.03204,0.86899
1410.54226,0.80540
1409.05247,0.72202
1407.56268,0.66026
1406.07289,0.62089
1404.58310,0.58052
1403.09331,0.54018
1401.60353,0.50037
1400.11374,0.43112
1398.62395,0.41600
1397.13416,0.35086
1395.64437,0.29285
1394.15458,0.25520
1392.66479,0.21427
1391.17501,0.18200
1389.68522,0.15764
1388.19543,0.11144
1386.70564,0.10466
1385.21585,0.09789
1383.72606,0.05635
1382.23628,0.04608
1380.74649,0.04295
1379.25670,0.03120
1377.76691,0.01542
1376.27712,0.01719
1374.78733,0.00145
1373.29755,0.00720
1371.80776,0.01475
1370.31797,0.02919
1368.82818,0.03133
1367.33839,0.03349
1365.84860,0.03835
1364.35881,0.04704
1362.86903,0.05296
1361.37924,0.07187
1359.88945,0.09765
1358.39966,0.13388
1356.90987,0.15998
1355.42008,0.19499
1353.93030,0.26381
1352.44051,0.28998
1350.95072,0.31617
1349.46093,0.43335
1347.97114,0.49541
1346.48135,0.55776
1344.99156,0.66027
1343.50178,0.73740
1342.01199,0.77212
1340.52220,0.80509
1339.03241,0.87721
1337.54262,0.92522
1336.05283,0.95661
1334.56305,0.98803
1333.07326,1.03509
1331.58347,1.03925
1330.09368,0.95704
1328.60389,0.93532
1327.11410,0.92862
1325.62432,0.94456
1324.13453,0.93460
1322.64474,0.87411
1321.15495,0.82203
1319.66516,0.78827
1318.17537,0.75453
1316.68558,0.70455
1315.19580,0.67315
1313.70601,0.60493
1312.21622,0.55401
1310.72643,0.51862
1309.23664,0.52110
1307.74685,0.48525
1306.25707,0.44917
1304.76728,0.41705
1303.27749,0.38495
1301.78770,0.34005
1300.29791,0.31321
1298.80812,0.23813
1297.31834,0.20346
1295.82855,0.17187
1294.33876,0.15885
1292.84897,0.13163
1291.35918,0.11129
1289.86939,0.11194
1288.37960,0.11261
1286.88982,0.10835
1285.40003,0.10234
1283.91024,0.09331
1282.42045,0.07642
1280.93066,0.08192
1279.44087,0.04806
1277.95109,0.03429
1276.46130,0.02386
1274.97151,0.02983
1273.48172,0.03583
1271.99193,0.03055
1270.50214,0.02656
1269.01235,0.02972
1267.52257,0.01917
1266.03278,0.02034
1264.54299,0.00147
1263.05320,0.01539
1261.56341,0.01587
1260.07362,0.01637
1258.58384,0.02681
1257.09405,0.00145
1255.60426,0.00216
1254.11447,0.00849
1252.62468,0.00976
1251.13489,0.00978
1249.64511,0.00449
1248.15532,0.00304
1246.66553,0.01356
1245.17574,0.02409
1243.68595,0.03517
1242.19616,0.00536
1240.70637,0.00987
1239.21659,0.00145
1237.72680,0.01725
1236.23701,0.03053
1234.74722,0.01588
1233.25743,0.01092
1231.76764,0.00597
1230.27786,0.00995
1228.78807,0.00557
1227.29828,0.00705
1225.80849,0.03067
1224.31870,0.01772
1222.82891,0.02665
1221.33912,0.03026
1219.84934,0.03174
1218.35955,0.03325
1216.86976,0.05015
1215.37997,0.05310
1213.89018,0.06243
1212.40039,0.07356
1210.91061,0.06414
1209.42082,0.07075
1207.93103,0.06785
1206.44124,0.06498
1204.95145,0.07141
1203.46166,0.06312
1201.97188,0.07036
1200.48209,0.06111
1198.99230,0.05544
1197.50251,0.06606
1196.01272,0.05536
1194.52293,0.05078
1193.03314,0.04622
1191.54336,0.01120
1190.05357,0.03566
1188.56378,0.00145
1187.07399,0.02408
1185.58420,0.02361
1184.09441,0.03333
1182.60463,0.02732
1181.11484,0.02133
1179.62505,0.01588
1178.13526,0.02138
1176.64547,0.01166
1175.15568,0.00145
1173.66589,0.01800
1172.17611,0.01349
1170.68632,0.01650
1169.19653,0.01953
1167.70674,0.03059
1166.21695,0.02465
1164.72716,0.03906
1163.23738,0.02453
1161.74759,0.03874
1160.25780,0.07253
1158.76801,0.06951
1157.27822,0.06651
1155.78843,0.08666
1154.29865,0.08041
1152.80886,0.08994
1151.31907,0.10330
1149.82928,0.11440
1148.33949,0.12451
1146.84970,0.11648
1145.35991,0.10847
1143.87013,0.12805
1142.38034,0.12606
1140.89055,0.15383
1139.40076,0.16815
1137.91097,0.17030
1136.42118,0.18874
1134.93140,0.20199
1133.44161,0.21526
1131.95182,0.24648
1130.46203,0.25409
1128.97224,0.25308
1127.48245,0.25541
1125.99266,0.22549
1124.50288,0.23624
1123.01309,0.24093
1121.52330,0.24563
1120.03351,0.25138
1118.54372,0.26605
1117.05393,0.23602
1115.56415,0.25582
1114.07436,0.24566
1112.58457,0.23489
1111.09478,0.22414
1109.60499,0.23794
1108.11520,0.24160
1106.62542,0.26917
1105.13563,0.24620
1103.64584,0.24104
1102.15605,0.22650
1100.66626,0.23371
1099.17647,0.24095
1097.68668,0.22751
1096.19690,0.21586
1094.70711,0.21212
1093.21732,0.19291
1091.72753,0.20878
1090.23774,0.21019
1088.74795,0.21163
1087.25817,0.20623
1085.76838,0.20899
1084.27859,0.21177
1082.78880,0.22932
1081.29901,0.22885
1079.80922,0.23755
1078.31943,0.22772
1076.82965,0.21792
1075.33986,0.23915
1073.85007,0.25074
1072.36028,0.25880
1070.87049,0.28798
1069.38070,0.32175
1067.89092,0.34615
1066.40113,0.37057
1064.91134,0.40060
1063.42155,0.51933
1061.93176,0.60201
1060.44197,0.71622
1058.95219,0.80581
1057.46240,0.84474
1055.97261,0.88368
1054.48282,0.99520
1052.99303,1.09022
1051.50324,1.08872
1050.01345,1.09867
1048.52367,1.08756
1047.03388,1.06974
1045.54409,1.05195
1044.05430,0.99366
1042.56451,0.93869
1041.07472,0.87206
1039.58494,0.77293
1038.09515,0.67993
1036.60536,0.65644
1035.11557,0.63297
1033.62578,0.55249
1032.13599,0.48423
1030.64620,0.39465
1029.15642,0.34626
1027.66663,0.31402
1026.17684,0.28181
1024.68705,0.23045
1023.19726,0.20781
1021.70747,0.19232
1020.21769,0.17482
1018.72790,0.15124
1017.23811,0.15158
1015.74832,0.15193
1014.25853,0.13936
1012.76874,0.12350
1011.27896,0.14756
1009.78917,0.13354
1008.29938,0.09133
1006.80959,0.08828
1005.31980,0.08525
1003.83001,0.04134
1002.34022,0.03964
1000.85044,0.04507
999.36065,0.02817
997.87086,0.04305
996.38107,0.05795
994.89128,0.08457
993.40149,0.09394
991.91171,0.10663
990.42192,0.12494
988.93213,0.15953
987.44234,0.15248
985.95255,0.14545
984.46276,0.15116
982.97297,0.13656
981.48319,0.11233
979.99340,0.09879
978.50361,0.09519
977.01382,0.09161
975.52403,0.05122
974.03424,0.04617
972.54446,0.03962
971.05467,0.02395
969.56488,0.01389
968.07509,0.01300
966.58530,0.01214
965.09551,0.00673
963.60573,0.03208
962.11594,0.04755
960.62615,0.00919
959.13636,0.00705
957.64657,0.00494
956.15678,0.00145
954.66699,0.02481
953.17721,0.04209
951.68742,0.07033
950.19763,0.06771
948.70784,0.06513
947.21805,0.09318
945.72826,0.08772
944.23848,0.11353
942.74869,0.09542
941.25890,0.12281
939.76911,0.12913
938.27932,0.13548
936.78953,0.15329
935.29974,0.19018
933.80996,0.21134
932.32017,0.22617
930.83038,0.24408
929.34059,0.26201
927.85080,0.27667
926.36101,0.29592
924.87123,0.33933
923.38144,0.35406
921.89165,0.40298
920.40186,0.45193
918.91207,0.56786
917.42228,0.69854
915.93250,0.86610
914.44271,1.04866
912.95292,1.16265
911.46313,1.27667
909.97334,1.51216
908.48355,1.70016
906.99376,1.84499
905.50398,1.89279
904.01419,1.94582
902.52440,1.99888
901.03461,2.00000
899.54482,1.98107
898.05503,1.86842
896.56525,1.65263
895.07546,1.49733
893.58567,1.34207
892.09588,1.08494
890.60609,0.86162
889.11630,0.67492
887.62651,0.47656
886.13673,0.41072
884.64694,0.34491
883.15715,0.27010
881.66736,0.19176
880.17757,0.11421
878.68778,0.10922
877.19800,0.10426
875.70821,0.05092
874.21842,0.03470
872.72863,0.04010
871.23884,0.04095
869.74905,0.04627
868.25927,0.05162
866.76948,0.03476
865.27969,0.02682
863.78990,0.04583
862.30011,0.06741
860.81032,0.06513
859.32053,0.06288
857.83075,0.10333
856.34096,0.11688
854.85117,0.12156
853.36138,0.15065
851.87159,0.14484
850.38180,0.13905
848.89202,0.18905
847.40223,0.20275
845.91244,0.21139
844.42265,0.22322
842.93286,0.23509
841.44307,0.24050
839.95329,0.25381
838.46350,0.27807
836.97371,0.27288
835.48392,0.28753
833.99413,0.30221
832.50434,0.28490
831.01455,0.28210
829.52477,0.24934
828.03498,0.19755
826.54519,0.19533
825.05540,0.19313
823.56561,0.18562
822.07582,0.17153
820.58604,0.18364
819.09625,0.17519
817.60646,0.16676
816.11667,0.14947
814.62688,0.11873
813.13709,0.13579
811.64730,0.13509
810.15752,0.13161
808.66773,0.12816
807.17794,0.12905
805.68815,0.13505
804.19836,0.16445
802.70857,0.16847
801.21879,0.17251
799.72900,0.16540
798.23921,0.15755
796.74942,0.13956
795.25963,0.13607
793.76984,0.13262
792.28006,0.16653
790.79027,0.17100
789.30048,0.20471
787.81069,0.23972
786.32090,0.24997
784.83111,0.26026
783.34132,0.30677
781.85154,0.31698
780.36175,0.37091
778.87196,0.38840
777.38217,0.40592
775.89238,0.44519
774.40259,0.44561
772.91281,0.46206
771.42302,0.43547
769.93323,0.40890
768.44344,0.36496
766.95365,0.30350
765.46386,0.28298
763.97407,0.22488
762.48429,0.20987
760.99450,0.19488
759.50471,0.16811
758.01492,0.14212
756.52513,0.11717
755.03534,0.12210
753.54556,0.12706
752.05577,0.09964
750.56598,0.07098
749.07619,0.07792
747.58640,0.07586
746.09661,0.07382
744.60683,0.05720
743.11704,0.04696
741.62725,0.04309
740.13746,0.03899
738.64767,0.03492
737.15788,0.02554
735.66809,0.01974
734.17831,0.02387
732.68852,0.03044
731.19873,0.03703
729.70894,0.02600
728.21915,0.04344
726.72936,0.00145
725.23958,0.01651
723.74979,0.01838
722.26000,0.02027
720.77021,0.01863
719.28042,0.01753
717.79063,0.02788
716.30084,0.02199
714.81106,0.01613
713.32127,0.01843
711.83148,0.03117
710.34169,0.01395
708.85190,0.01835
707.36211,0.02277
705.87233,0.03993
704.38254,0.04720
702.89275,0.06136
701.40296,0.06512
699.91317,0.06891
698.42338,0.06154
696.93360,0.07554
695.44381,0.10074
693.95402,0.11073
692.46423,0.12073
690.97444,0.15490
689.48465,0.15607
687.99486,0.16920
686.50508,0.18667
685.01529,0.20417
683.52550,0.23516
682.03571,0.24103
680.54592,0.27969
679.05613,0.27416
677.56635,0.26867
676.07656,0.29749
674.58677,0.26943
673.09698,0.24012
671.60719,0.22253
670.11740,0.20496
668.62761,0.20494
667.13783,0.18107
665.64804,0.16408
664.15825,0.14711
662.66846,0.10146
661.17867,0.10538
659.68888,0.08468
658.19910,0.05968
656.70931,0.03471
655.21952,0.04711
653.72973,0.04734
652.23994,0.06055
650.75015,0.05779
649.26037,0.05504
647.77058,0.04699
646.28079,0.04734
644.79100,0.04518
643.30121,0.04723
641.81142,0.04931
640.32163,0.04443
638.83185,0.02966
637.34206,0.00145
635.85227,0.00647
634.36248,0.01151
632.87269,0.00705
631.38290,0.01634
629.89312,0.00303
628.40333,0.01033
626.91354,0.01766
625.42375,0.00697
623.93396,0.01511
622.44417,0.01730
620.95438,0.01952
619.46460,0.01858
617.97481,0.03164
616.48502,0.03482
614.99523,0.06788
613.50544,0.10096
612.01565,0.14055
610.52587,0.18092
609.03608,0.18422
607.54629,0.20648
606.05650,0.22876
604.56671,0.28244
603.07692,0.34504
601.58714,0.36041
600.09735,0.37580
598.60756,0.39376
597.11777,0.44147
595.62798,0.39697
594.13819,0.39493
592.64840,0.39291
591.15862,0.36297
589.66883,0.31323
588.17904,0.29731
586.68925,0.26707
585.19946,0.23684
583.70967,0.17755
582.21989,0.12489
580.73010,0.10566
579.24031,0.08646
577.75052,0.08037
576.26073,0.07609
574.77094,0.03676
573.28115,0.02731
571.79137,0.01789
570.30158,0.03251
568.81179,0.04714
567.32200,0.07006
565.83221,0.09301
564.34242,0.11737
562.85264,0.12855
561.36285,0.14408
559.87306,0.16204
558.38327,0.18002
556.89348,0.17377
555.40369,0.18710
553.91391,0.19932
552.42412,0.21156
550.93433,0.21430
549.44454,0.21706
547.95475,0.22391
546.46496,0.23193
544.97517,0.23998
543.48539,0.24639
541.99560,0.26554
540.50581,0.29246
539.01602,0.31940
537.52623,0.35260
536.03644,0.38480
534.54666,0.40636
533.05687,0.42082
531.56708,0.43531
530.07729,0.48972
528.58750,0.54136
527.09771,0.56672
525.60792,0.59211
524.11814,0.64255
522.62835,0.69936
521.13856,0.76840
519.64877,0.76746
518.15898,0.76655
516.66919,0.81076
515.17941,0.85448
513.68962,0.84094
512.19983,0.82742
510.71004,0.80135
509.22025,0.74608
507.73046,0.67153
506.24068,0.62762
504.75089,0.58373
503.26110,0.49452
501.77131,0.38881
500.28152,0.31426
498.79173,0.23973
497.30194,0.21058
495.81216,0.19542
494.32237,0.18347
492.83258,0.17154
491.34279,0.11276
489.85300,0.07128
488.36321,0.05574
486.87343,0.05369
485.38364,0.05167
483.89385,0.07304
482.40406,0.10842
480.91427,0.12184
479.42448,0.13529
477.93469,0.16565
476.44491,0.16708
474.95512,0.17997
473.46533,0.19288
471.97554,0.19692
470.48575,0.19235
468.99596,0.20762
467.50618,0.20284
466.01639,0.19809
464.52660,0.14356
463.03681,0.10506
461.54702,0.10635
460.05723,0.10767
458.56745,0.06747
457.07766,0.04991
455.58787,0.04965
454.09808,0.04941
452.60829,0.02811
451.11850,0.01522
449.62871,0.00832
448.13893,0.00145
446.64914,0.01914
445.15935,0.00535
443.66956,0.03986
442.17977,0.03298
440.68998,0.02612
439.20020,0.05003
437.71041,0.06228
436.22062,0.05143
434.73083,0.04060
433.24104,0.05826
431.75125,0.05180
430.26146,0.05947
428.77168,0.06717
427.28189,0.05393
425.79210,0.03131
424.30231,0.03158
422.81252,0.03188
421.32273,0.04897
419.83295,0.02874
418.34316,0.03915
416.85337,0.04958
415.36358,0.04822
413.87379,0.06391
412.38400,0.06984
410.89422,0.07580
409.40443,0.05345
407.91464,0.04079
406.42485,0.05228
404.93506,0.05224
403.44527,0.05222
401.95548,0.04067
400.46570,0.02634
398.97591,0.02581
397.48612,0.02530
395.99633,0.03027
394.50654,0.02943
393.01675,0.03852
391.52697,0.04764
390.03718,0.04229
388.54739,0.02783
387.05760,0.03244
385.56781,0.03708
384.07802,0.03667
382.58824,0.00960
381.09845,0.00783
379.60866,0.00609
378.11887,0.00145
376.62908,0.02480
375.13929,0.03433
373.64950,0.04389
372.15972,0.04547
370.66993,0.04097
369.18014,0.04089
367.69035,0.04083
366.20056,0.03877
364.71077,0.05706
363.22099,0.04907
361.73120,0.04111
360.24141,0.04651
358.75162,0.04686
357.26183,0.03389
355.77204,0.02095
354.28225,0.05160
352.79247,0.07771
351.30268,0.08974
349.81289,0.10179
348.32310,0.07767
346.83331,0.12598
345.34352,0.09516
343.85374,0.06438
342.36395,0.07109
340.87416,0.03565
339.38437,0.02654
337.89458,0.01745
336.40479,0.02375
334.91501,0.02652
333.42522,0.02056
331.93543,0.01461
330.44564,0.00145
328.95585,0.02526
327.46606,0.04451
325.97627,0.06379
324.48649,0.04117
322.99670,0.01299
321.50691,0.00973
320.01712,0.00650
318.52733,0.06313
317.03754,0.06236
315.54776,0.07356
314.05797,0.08478
312.56818,0.14100
311.07839,0.13982
309.58860,0.11707
308.09881,0.09435
306.60902,0.06428
305.11924,0.08327
303.62945,0.05147
302.13966,0.01970
300.64987,0.00345
299.16008,0.00145
