1778.52000,0.01050
1777.03021,0.00000
1775.54042,0.00747
1774.05063,0.01025
1772.56085,0.01564
1771.07106,0.01681
1769.58127,0.00855
1768.09148,0.01780
1766.60169,0.01431
1765.11190,0.00966
1763.62212,0.01260
1762.13233,0.01651
1760.64254,0.01500
1759.15275,0.01636
1757.66296,0.02364
1756.17317,0.01276
1754.68339,0.00592
1753.19360,0.00926
1751.70381,0.00482
1750.21402,0.01719
1748.72423,0.00878
1747.23444,0.01670
1745.74465,0.02134
1744.25487,0.01726
1742.76508,0.00966
1741.27529,0.01881
1739.78550,0.01333
1738.29571,0.01401
1736.80592,0.02087
1735.31614,0.02656
1733.82635,0.01834
1732.33656,0.00967
1730.84677,0.00481
1729.35698,0.01201
1727.86719,0.01901
1726.37740,0.01043
1724.88762,0.01322
1723.39783,0.00658
1721.90804,0.01585
1720.41825,0.01119
1718.92846,0.01176
1717.43867,0.01448
1715.94889,0.00966
1714.45910,0.01658
1712.96931,0.02139
1711.47952,0.01252
1709.98973,0.01124
1708.49994,0.01045
1707.01016,0.00815
1705.52037,0.00587
1704.03058,0.00823
1702.54079,0.01580
1701.05100,0.01679
1699.56121,0.00740
1698.07142,0.02110
1696.58164,0.01214
1695.09185,0.01550
1693.60206,0.00966
1692.11227,0.01515
1690.62248,0.02208
1689.13269,0.03116
1687.64291,0.02325
1686.15312,0.02056
1684.66333,0.02191
1683.17354,0.02565
1681.68375,0.02682
1680.19396,0.02304
1678.70417,0.02142
1677.21439,0.02029
1675.72460,0.03147
1674.23481,0.03724
1672.74502,0.03358
1671.25523,0.03963
1669.76544,0.04382
1668.27566,0.05654
1666.78587,0.05534
1665.29608,0.05251
1663.80629,0.05513
1662.31650,0.06464
1660.82671,0.05455
1659.33693,0.07355
1657.84714,0.06777
1656.35735,0.05941
1654.86756,0.06147
1653.37777,0.05481
1651.88798,0.06188
1650.39819,0.07842
1648.90841,0.08199
1647.41862,0.07921
1645.92883,0.07668
1644.43904,0.07418
1642.94925,0.08565
1641.45946,0.09170
1639.96968,0.06753
1638.47989,0.08497
1636.99010,0.07834
1635.50031,0.06062
1634.01052,0.06962
1632.52073,0.07912
1631.03094,0.07424
1629.54116,0.07457
1628.05137,0.08650
1626.56158,0.09067
1625.07179,0.09603
1623.58200,0.08654
1622.09221,0.09195
1620.60243,0.08014
1619.11264,0.09245
1617.62285,0.08281
1616.13306,0.08147
1614.64327,0.09149
1613.15348,0.09562
1611.66370,0.10498
1610.17391,0.09499
1608.68412,0.08998
1607.19433,0.09965
1605.70454,0.08051
1604.21475,0.07912
1602.72496,0.07775
1601.23518,0.09200
1599.74539,0.10344
1598.25560,0.08560
1596.76581,0.07369
1595.27602,0.07953
1593.78623,0.09130
1592.29645,0.07710
1590.80666,0.09340
1589.31687,0.07500
1587.82708,0.08237
1586.33729,0.09520
1584.84750,0.08821
1583.35771,0.09140
1581.86793,0.07571
1580.37814,0.07847
1578.88835,0.06378
1577.39856,0.07793
1575.90877,0.07699
1574.41898,0.06827
1572.92920,0.06595
1571.43941,0.06461
1569.94962,0.05584
1568.45983,0.04710
1566.97004,0.04795
1565.48025,0.03677
1563.99047,0.03578
1562.50068,0.04497
1561.01089,0.04190
1559.52110,0.04357
1558.03131,0.04126
1556.54152,0.03637
1555.05173,0.03717
1553.56195,0.03351
1552.07216,0.03199
1550.58237,0.01207
1549.09258,0.00966
1547.60279,0.02730
1546.11300,0.03267
1544.62322,0.04019
1543.13343,0.03592
1541.64364,0.02648
1540.15385,0.02462
1538.66406,0.02279
1537.17427,0.01389
1535.68448,0.02012
1534.19470,0.02401
1532.70491,0.03028
1531.21512,0.03989
1529.72533,0.03936
1528.23554,0.04642
1526.74575,0.03767
1525.25597,0.04619
1523.76618,0.04505
1522.27639,0.04440
1520.78660,0.04874
1519.29681,0.02900
1517.80702,0.05489
1516.31724,0.04465
1514.82745,0.05404
1513.33766,0.04928
1511.84787,0.04455
1510.35808,0.05449
1508.86829,0.05287
1507.37850,0.05175
1505.88872,0.05869
1504.39893,0.05832
1502.90914,0.06672
1501.41935,0.06877
1499.92956,0.07580
1498.43977,0.08238
1496.94999,0.09135
1495.46020,0.08451
1493.97041,0.08668
1492.48062,0.09666
1490.99083,0.09556
1489.50104,0.10583
1488.01125,0.10974
1486.52147,0.11368
1485.03168,0.11102
1483.54189,0.14666
1482.05210,0.16484
1480.56231,0.15682
1479.07252,0.18356
1477.58274,0.18999
1476.09295,0.20614
1474.60316,0.20649
1473.11337,0.19858
1471.62358,0.21197
1470.13379,0.20128
1468.64401,0.21684
1467.15422,0.22746
1465.66443,0.22924
1464.17464,0.23105
1462.68485,0.25213
1461.19506,0.29073
1459.70527,0.34116
1458.21549,0.35570
1456.72570,0.41752
1455.23591,0.47629
1453.74612,0.51146
1452.25633,0.60406
1450.76654,0.60218
1449.27676,0.60789
1447.78697,0.59164
1446.29718,0.57046
1444.80739,0.56702
1443.31760,0.56361
1441.82781,0.50446
1440.33802,0.47108
1438.84824,0.45309
1437.35845,0.43796
1435.86866,0.43017
1434.37887,0.42170
1432.88908,0.44822
1431.39929,0.48374
1429.90951,0.56181
1428.41972,0.61935
1426.92993,0.66983
1425.44014,0.71536
1423.95035,0.74131
1422.46056,0.76729
1420.97078,0.78455
1419.48099,0.81246
1417.99120,0.82149
1416.50141,0.80480
1415.01162,0.76946
1413.52183,0.75801
1412.03204,0.68421
1410.54226,0.66312
1409.05247,0.61631
1407.56268,0.55959
1406.07289,0.48895
1404.58310,0.46820
1403.09331,0.44746
1401.60353,0.43549
1400.11374,0.35526
1398.62395,0.32231
1397.13416,0.26741
1395.64437,0.23805
1394.15458,0.21061
1392.66479,0.16641
1391.17501,0.14492
1389.68522,0.11140
1388.19543,0.08263
1386.70564,0.07834
1385.21585,0.07407
1383.72606,0.05766
1382.23628,0.04363
1380.74649,0.01994
1379.25670,0.02298
1377.76691,0.01280
1376.27712,0.01304
1374.78733,0.01544
1373.29755,0.01029
1371.80776,0.00966
1370.31797,0.01122
1368.82818,0.01421
1367.33839,0.01723
1365.84860,0.02618
1364.35881,0.02311
1362.86903,0.04227
1361.37924,0.05956
1359.88945,0.06907
1358.39966,0.08806
1356.90987,0.10850
1355.42008,0.13817
1353.93030,0.19999
1352.44051,0.21967
1350.95072,0.23937
1349.46093,0.32135
1347.97114,0.34830
1346.48135,0.41662
1344.99156,0.48119
1343.50178,0.52711
1342.01199,0.57353
1340.52220,0.63793
1339.03241,0.69574
1337.54262,0.74814
1336.05283,0.77102
1334.56305,0.79394
1333.07326,0.79490
1331.58347,0.77486
1330.09368,0.77469
1328.60389,0.80124
1327.11410,0.77749
1325.62432,0.76723
1324.13453,0.73478
1322.64474,0.66550
1321.15495,0.62507
1319.66516,0.60392
1318.17537,0.58279
1316.68558,0.54337
1315.19580,0.50942
1313.70601,0.48611
1312.21622,0.46189
1310.72643,0.42682
1309.23664,0.42533
1307.74685,0.36408
1306.25707,0.31632
1304.76728,0.30249
1303.27749,0.28869
1301.78770,0.26770
1300.29791,0.22996
1298.80812,0.17831
1297.31834,0.15952
1295.82855,0.13815
1294.33876,0.11539
1292.84897,0.10210
1291.35918,0.07963
1289.86939,0.08281
1288.37960,0.08601
1286.88982,0.08605
1285.40003,0.07785
1283.91024,0.07392
1282.42045,0.06127
1280.93066,0.04132
1279.44087,0.02895
1277.95109,0.02961
1276.46130,0.03265
1274.97151,0.03181
1273.48172,0.03100
1271.99193,0.01615
1270.50214,0.02070
1269.01235,0.02362
1267.52257,0.02822
1266.03278,0.02764
1264.54299,0.03323
1263.05320,0.02798
1261.56341,0.02818
1260.07362,0.02841
1258.58384,0.01779
1257.09405,0.02397
1255.60426,0.02616
1254.11447,0.00805
1252.62468,0.02878
1251.13489,0.02495
1249.64511,0.02423
1248.15532,0.02541
1246.66553,0.01753
1245.17574,0.00966
1243.68595,0.02827
1242.19616,0.01241
1240.70637,0.02233
1239.21659,0.04337
1237.72680,0.03396
1236.23701,0.04206
1234.74722,0.02868
1233.25743,0.02961
1231.76764,0.03057
1230.27786,0.02482
1228.78807,0.02949
1227.29828,0.03183
1225.80849,0.02142
1224.31870,0.01884
1222.82891,0.00966
1221.33912,0.02021
1219.84934,0.02735
1218.35955,0.03452
1216.86976,0.03451
1215.37997,0.05082
1213.89018,0.04566
1212.40039,0.06698
1210.91061,0.06328
1209.42082,0.06244
1207.93103,0.05252
1206.44124,0.04263
1204.95145,0.05155
1203.46166,0.05340
1201.97188,0.04252
1200.48209,0.04347
1198.99230,0.04870
1197.50251,0.03789
1196.01272,0.02568
1194.52293,0.02437
1193.03314,0.02308
1191.54336,0.01685
1190.05357,0.03829
1188.56378,0.03754
1187.07399,0.03351
1185.58420,0.01438
1184.09441,0.01158
1182.60463,0.01600
1181.11484,0.02045
1179.62505,0.02693
1178.13526,0.01170
1176.64547,0.01988
1175.15568,0.00966
1173.66589,0.02093
1172.17611,0.01380
1170.68632,0.01484
1169.19653,0.01591
1167.70674,0.02538
1166.21695,0.01787
1164.72716,0.03637
1163.23738,0.03718
1161.74759,0.04439
1160.25780,0.05540
1158.76801,0.05745
1157.27822,0.05953
1155.78843,0.07440
1154.29865,0.08692
1152.80886,0.10088
1151.31907,0.08439
1149.82928,0.09675
1148.33949,0.09755
1146.84970,0.10488
1145.35991,0.11223
1143.87013,0.13035
1142.38034,0.14944
1140.89055,0.14705
1139.40076,0.16052
1137.91097,0.16976
1136.42118,0.19225
1134.93140,0.18736
1133.44161,0.18249
1131.95182,0.20647
1130.46203,0.21890
1128.97224,0.20206
1127.48245,0.21264
1125.99266,0.23057
1124.50288,0.25798
1123.01309,0.24430
1121.52330,0.23064
1120.03351,0.22126
1118.54372,0.22608
1117.05393,0.22856
1115.56415,0.21429
1114.07436,0.20595
1112.58457,0.20850
1111.09478,0.21107
1109.60499,0.21698
1108.11520,0.21865
1106.62542,0.24020
1105.13563,0.22467
1103.64584,0.21721
1102.15605,0.21992
1100.66626,0.20470
1099.17647,0.18951
1097.68668,0.18875
1096.19690,0.19085
1094.70711,0.17927
1093.21732,0.18402
1091.72753,0.17556
1090.23774,0.17102
1088.74795,0.16651
1087.25817,0.15812
1085.76838,0.13676
1084.27859,0.14519
1082.78880,0.15199
1081.29901,0.15740
1079.80922,0.14842
1078.31943,0.14950
1076.82965,0.15061
1075.33986,0.18163
1073.85007,0.19093
1072.36028,0.20782
1070.87049,0.20016
1069.38070,0.22608
1067.89092,0.22473
1066.40113,0.22340
1064.91134,0.24915
1063.42155,0.33801
1061.93176,0.39593
1060.44197,0.48484
1058.95219,0.57400
1057.46240,0.62231
1055.97261,0.67065
1054.48282,0.74003
1052.99303,0.80495
1051.50324,0.79358
1050.01345,0.81532
1048.52367,0.78084
1047.03388,0.80439
1045.54409,0.82797
1044.05430,0.77702
1042.56451,0.73721
1041.07472,0.66694
1039.58494,0.59976
1038.09515,0.57041
1036.60536,0.54369
1035.11557,0.51698
1033.62578,0.44990
1032.13599,0.42561
1030.64620,0.34440
1029.15642,0.28920
1027.66663,0.27148
1026.17684,0.25378
1024.68705,0.20881
1023.19726,0.18702
1021.70747,0.16171
1020.21769,0.13076
1018.72790,0.12132
1017.23811,0.10766
1015.74832,0.09402
1014.25853,0.09175
1012.76874,0.07154
1011.27896,0.07026
1009.78917,0.07231
1008.29938,0.06398
1006.80959,0.05816
1005.31980,0.05237
1003.83001,0.03230
1002.34022,0.01462
1000.85044,0.01422
999.36065,0.01147
997.87086,0.02505
996.38107,0.03865
994.89128,0.05440
993.40149,0.07277
991.91171,0.08385
990.42192,0.09849
988.93213,0.09661
987.44234,0.08649
985.95255,0.07640
984.46276,0.07648
982.97297,0.07683
981.48319,0.07271
979.99340,0.06696
978.50361,0.05982
977.01382,0.05270
975.52403,0.03710
974.03424,0.03995
972.54446,0.02983
971.05467,0.01359
969.56488,0.02241
968.07509,0.01603
966.58530,0.00966
965.09551,0.02341
963.60573,0.01544
962.11594,0.02026
960.62615,0.01518
959.13636,0.01189
957.64657,0.00863
956.15678,0.02636
954.66699,0.04554
953.17721,0.05222
951.68742,0.05585
950.19763,0.06234
948.70784,0.06885
947.21805,0.06995
945.72826,0.09140
944.23848,0.09396
942.74869,0.11498
941.25890,0.13602
939.76911,0.13724
938.27932,0.13849
936.78953,0.17708
935.29974,0.20625
933.80996,0.20544
932.32017,0.20087
930.83038,0.21771
929.34059,0.23457
927.85080,0.26078
926.36101,0.27001
924.87123,0.27194
923.38144,0.34548
921.89165,0.38337
920.40186,0.42128
918.91207,0.48567
917.42228,0.59522
915.93250,0.73834
914.44271,0.94645
912.95292,1.04213
911.46313,1.13783
909.97334,1.32877
908.48355,1.50390
906.99376,1.74993
905.50398,1.90621
904.01419,1.95289
902.52440,1.99959
901.03461,2.00000
899.54482,1.96594
898.05503,1.82276
896.56525,1.65219
895.07546,1.52677
893.58567,1.40137
892.09588,1.16354
890.60609,0.91084
889.11630,0.67258
887.62651,0.48845
886.13673,0.42874
884.64694,0.36904
883.15715,0.26673
881.66736,0.18240
880.17757,0.13778
878.68778,0.12035
877.19800,0.10295
875.70821,0.07376
874.21842,0.05712
872.72863,0.03884
871.23884,0.03925
869.74905,0.03898
868.25927,0.03873
866.76948,0.02126
865.27969,0.04894
863.78990,0.03128
862.30011,0.04317
860.81032,0.04729
859.32053,0.05144
857.83075,0.07120
856.34096,0.07634
854.85117,0.06213
853.36138,0.08385
851.87159,0.08528
850.38180,0.08673
848.89202,0.12577
847.40223,0.14806
845.91244,0.15572
844.42265,0.15585
842.93286,0.15600
841.44307,0.15783
839.95329,0.18615
838.46350,0.21850
836.97371,0.21804
835.48392,0.22102
833.99413,0.22403
832.50434,0.18938
831.01455,0.18760
829.52477,0.17851
828.03498,0.16567
826.54519,0.16194
825.05540,0.15824
823.56561,0.12964
822.07582,0.11665
820.58604,0.11125
819.09625,0.10587
817.60646,0.10052
816.11667,0.10298
814.62688,0.10736
813.13709,0.10113
811.64730,0.09139
810.15752,0.09253
808.66773,0.09369
807.17794,0.09843
805.68815,0.10295
804.19836,0.11434
802.70857,0.10733
801.21879,0.10035
799.72900,0.10685
798.23921,0.09684
796.74942,0.09394
795.25963,0.09851
793.76984,0.10310
792.28006,0.10594
790.79027,0.11921
789.30048,0.15470
787.81069,0.16163
786.32090,0.17071
784.83111,0.17981
783.34132,0.22202
781.85154,0.24510
780.36175,0.23869
778.87196,0.26359
777.38217,0.28853
775.89238,0.29352
774.40259,0.30680
772.91281,0.30097
771.42302,0.28560
769.93323,0.27025
768.44344,0.26425
766.95365,0.21788
765.46386,0.20224
763.97407,0.16277
762.48429,0.15025
760.99450,0.13776
759.50471,0.10332
758.01492,0.08827
756.52513,0.07963
755.03534,0.08082
753.54556,0.08203
752.05577,0.06897
750.56598,0.06349
749.07619,0.04339
747.58640,0.03796
746.09661,0.03256
744.60683,0.03143
743.11704,0.03717
741.62725,0.02782
740.13746,0.01873
738.64767,0.00966
737.15788,0.01870
735.66809,0.01312
734.17831,0.02150
732.68852,0.01974
731.19873,0.01801
729.70894,0.01606
728.21915,0.01154
726.72936,0.02385
725.23958,0.01422
723.74979,0.01193
722.26000,0.00966
720.77021,0.01999
719.28042,0.01522
717.79063,0.01780
716.30084,0.01815
714.81106,0.01853
713.32127,0.01386
711.83148,0.02953
710.34169,0.02466
708.85190,0.02372
707.36211,0.02280
705.87233,0.02462
704.38254,0.02954
702.89275,0.04700
701.40296,0.05031
699.91317,0.05364
698.42338,0.07330
696.93360,0.09794
695.44381,0.08906
693.95402,0.10666
692.46423,0.12429
690.97444,0.13627
689.48465,0.13457
687.99486,0.15534
686.50508,0.16254
685.01529,0.16977
683.52550,0.22251
682.03571,0.22778
680.54592,0.24205
679.05613,0.23484
677.56635,0.22766
676.07656,0.24082
674.58677,0.22518
673.09698,0.20838
671.60719,0.21015
670.11740,0.21195
668.62761,0.16971
667.13783,0.14166
665.64804,0.12734
664.15825,0.11305
662.66846,0.08838
661.17867,0.07106
659.68888,0.07196
658.19910,0.05634
656.70931,0.04075
655.21952,0.04573
653.72973,0.03468
652.23994,0.03144
650.75015,0.04075
649.26037,0.05008
647.77058,0.03699
646.28079,0.02581
644.79100,0.04774
643.30121,0.03448
641.81142,0.02125
640.32163,0.02056
638.83185,0.01706
637.34206,0.02441
635.85227,0.02505
634.36248,0.02572
632.87269,0.02298
631.38290,0.02428
629.89312,0.02726
628.40333,0.01845
626.91354,0.00966
625.42375,0.01231
623.93396,0.03648
622.44417,0.03504
620.95438,0.03362
619.46460,0.04794
617.97481,0.06228
616.48502,0.08562
614.99523,0.09328
613.50544,0.10096
612.01565,0.12721
610.52587,0.14143
609.03608,0.17316
607.54629,0.19983
606.05650,0.22653
604.56671,0.25006
603.07692,0.28377
601.58714,0.29991
600.09735,0.31607
598.60756,0.33828
597.11777,0.36831
595.62798,0.35252
594.13819,0.35472
592.64840,0.35694
591.15862,0.34642
589.66883,0.29600
588.17904,0.25033
586.68925,0.22418
585.19946,0.19804
583.70967,0.14724
582.21989,0.10025
580.73010,0.09096
579.24031,0.08170
577.75052,0.06502
576.26073,0.05686
574.77094,0.04236
573.28115,0.04866
571.79137,0.05499
570.30158,0.05048
568.81179,0.05662
567.32200,0.06396
565.83221,0.07133
564.34242,0.08463
562.85264,0.09630
561.36285,0.12665
559.87306,0.12419
558.38327,0.12176
556.89348,0.11935
555.40369,0.12452
553.91391,0.12475
552.42412,0.12501
550.93433,0.11418
549.44454,0.12275
547.95475,0.13820
546.46496,0.14269
544.97517,0.14720
543.48539,0.18445
541.99560,0.21204
540.50581,0.22678
539.01602,0.24154
537.52623,0.29023
536.03644,0.31509
534.54666,0.33996
533.05687,0.37407
531.56708,0.40821
530.07729,0.43575
528.58750,0.47891
527.09771,0.50343
525.60792,0.52797
524.11814,0.58373
522.62835,0.63832
521.13856,0.70216
519.64877,0.72502
518.15898,0.74791
516.66919,0.77567
515.17941,0.76942
513.68962,0.77419
512.19983,0.77898
510.71004,0.74469
509.22025,0.69059
507.73046,0.59775
506.24068,0.55160
504.75089,0.50548
503.26110,0.42146
501.77131,0.35731
500.28152,0.31267
498.79173,0.26806
497.30194,0.20752
495.81216,0.16662
494.32237,0.13779
492.83258,0.10898
491.34279,0.09484
489.85300,0.07601
488.36321,0.09145
486.87343,0.08188
485.38364,0.07232
483.89385,0.07296
482.40406,0.06818
480.91427,0.08149
479.42448,0.09484
477.93469,0.09840
476.44491,0.14309
474.95512,0.13807
473.46533,0.13308
471.97554,0.15398
470.48575,0.15199
468.99596,0.14648
467.50618,0.14134
466.01639,0.13623
464.52660,0.12536
463.03681,0.07127
461.54702,0.07532
460.05723,0.07940
458.56745,0.04310
457.07766,0.05172
455.58787,0.04665
454.09808,0.04161
452.60829,0.00966
451.11850,0.02548
449.62871,0.01758
448.13893,0.00969
446.64914,0.03196
445.15935,0.01787
443.66956,0.02955
442.17977,0.04019
440.68998,0.05086
439.20020,0.04513
437.71041,0.03422
436.22062,0.04236
434.73083,0.05052
433.24104,0.04181
431.75125,0.05510
430.26146,0.05116
428.77168,0.04725
427.28189,0.03533
425.79210,0.05249
424.30231,0.04711
422.81252,0.04176
421.32273,0.04647
419.83295,0.04293
418.34316,0.03647
416.85337,0.03003
415.36358,0.05232
413.87379,0.04888
412.38400,0.04534
410.89422,0.04183
409.40443,0.05547
407.91464,0.03677
406.42485,0.04998
404.93506,0.06228
403.44527,0.07460
401.95548,0.06449
400.46570,0.03598
398.97591,0.04424
397.48612,0.05251
395.99633,0.04865
394.50654,0.07056
393.01675,0.04925
391.52697,0.02797
390.03718,0.04051
388.54739,0.03535
387.05760,0.03624
385.56781,0.03715
384.07802,0.04057
382.58824,0.05323
381.09845,0.04606
379.60866,0.03891
378.11887,0.04384
376.62908,0.04620
375.13929,0.03629
373.64950,0.02640
372.15972,0.02410
370.66993,0.04285
369.18014,0.04299
367.69035,0.04314
366.20056,0.04533
364.71077,0.06502
363.22099,0.04859
361.73120,0.03219
360.24141,0.00966
358.75162,0.01460
357.26183,0.02806
355.77204,0.04155
354.28225,0.07987
352.79247,0.07427
351.30268,0.07342
349.81289,0.07259
348.32310,0.08501
346.83331,0.08258
345.34352,0.06410
343.85374,0.04565
342.36395,0.04375
340.87416,0.04259
339.38437,0.02669
337.89458,0.01081
336.40479,0.01303
334.91501,0.03488
333.42522,0.02687
331.93543,0.01888
330.44564,0.02473
328.95585,0.03959
327.46606,0.04231
325.97627,0.04504
324.48649,0.04839
322.99670,0.03877
321.50691,0.04064
320.01712,0.04252
318.52733,0.02282
317.03754,0.06172
315.54776,0.08010
314.05797,0.09850
312.56818,0.13347
311.07839,0.08127
309.58860,0.06761
308.09881,0.05397
306.60902,0.05123
305.11924,0.03693
303.62945,0.02856
302.13966,0.01211
300.64987,0.00966
299.16008,0.00966
