1778.52000,0.01715
1777.03021,0.00612
1775.54042,0.02327
1774.05063,0.01252
1772.56085,0.01042
1771.07106,0.01651
1769.58127,0.02354
1768.09148,0.02106
1766.60169,0.02450
1765.11190,0.02071
1763.62212,0.01989
1762.13233,0.02000
1760.64254,0.02081
1759.15275,0.01870
1757.66296,0.01775
1756.17317,0.01341
1754.68339,0.01296
1753.19360,0.01480
1751.70381,0.02235
1750.21402,0.02061
1748.72423,0.01616
1747.23444,0.01447
1745.74465,0.01621
1744.25487,0.01955
1742.76508,0.02247
1741.27529,0.01384
1739.78550,0.02608
1738.29571,0.02404
1736.80592,0.03314
1735.31614,0.02661
1733.82635,0.02668
1732.33656,0.01294
1730.84677,0.00829
1729.35698,0.01025
1727.86719,0.02109
1726.37740,0.02083
1724.88762,0.00834
1723.39783,0.00949
1721.90804,0.01543
1720.41825,0.00868
1718.92846,0.00959
1717.43867,0.02040
1715.94889,0.02602
1714.45910,0.01918
1712.96931,0.02008
1711.47952,0.01510
1709.98973,0.00833
1708.49994,0.00884
1707.01016,0.01154
1705.52037,0.01426
1704.03058,0.01440
1702.54079,0.01887
1701.05100,0.02405
1699.56121,0.00836
1698.07142,0.00768
1696.58164,0.01520
1695.09185,0.01344
1693.60206,0.01215
1692.11227,0.00612
1690.62248,0.01720
1689.13269,0.02422
1687.64291,0.01537
1686.15312,0.01517
1684.66333,0.01000
1683.17354,0.01711
1681.68375,0.01721
1680.19396,0.02097
1678.70417,0.02248
1677.21439,0.02424
1675.72460,0.01695
1674.23481,0.02897
1672.74502,0.01991
1671.25523,0.03720
1669.76544,0.05474
1668.27566,0.03735
1666.78587,0.03360
1665.29608,0.04237
1663.80629,0.03231
1662.31650,0.05429
1660.82671,0.05699
1659.33693,0.05041
1657.84714,0.05748
1656.35735,0.05413
1654.86756,0.03922
1653.37777,0.04568
1651.88798,0.06646
1650.39819,0.04391
1648.90841,0.06247
1647.41862,0.07243
1645.92883,0.06822
1644.43904,0.06404
1642.94925,0.07656
1641.45946,0.07390
1639.96968,0.07558
1638.47989,0.07115
1636.99010,0.06788
1635.50031,0.06827
1634.01052,0.06551
1632.52073,0.06049
1631.03094,0.06254
1629.54116,0.06779
1628.05137,0.06353
1626.56158,0.07337
1625.07179,0.08210
1623.58200,0.07904
1622.09221,0.07034
1620.60243,0.06597
1619.11264,0.07116
1617.62285,0.07592
1616.13306,0.06118
1614.64327,0.07439
1613.15348,0.08513
1611.66370,0.09588
1610.17391,0.06490
1608.68412,0.08115
1607.19433,0.07314
1605.70454,0.08195
1604.21475,0.08307
1602.72496,0.08421
1601.23518,0.07924
1599.74539,0.07703
1598.25560,0.07211
1596.76581,0.07244
1595.27602,0.07778
1593.78623,0.07067
1592.29645,0.07130
1590.80666,0.07354
1589.31687,0.07330
1587.82708,0.07741
1586.33729,0.07200
1584.84750,0.07479
1583.35771,0.06603
1581.86793,0.06569
1580.37814,0.06423
1578.88835,0.06462
1577.39856,0.05391
1575.90877,0.05957
1574.41898,0.05503
1572.92920,0.05484
1571.43941,0.05988
1569.94962,0.04793
1568.45983,0.03600
1566.97004,0.03136
1565.48025,0.04014
1563.99047,0.02919
1562.50068,0.03801
1561.01089,0.02711
1559.52110,0.01714
1558.03131,0.02285
1556.54152,0.02224
1555.05173,0.03323
1553.56195,0.01541
1552.07216,0.01282
1550.58237,0.00662
1549.09258,-0.00000
1547.60279,0.00657
1546.11300,0.00612
1544.62322,0.01886
1543.13343,0.02663
1541.64364,0.01740
1540.15385,0.01308
1538.66406,0.00878
1537.17427,0.00893
1535.68448,0.00547
1534.19470,0.00612
1532.70491,0.01812
1531.21512,0.02332
1529.72533,0.03628
1528.23554,0.03994
1526.74575,0.04023
1525.25597,0.03941
1523.76618,0.03543
1522.27639,0.03579
1520.78660,0.04162
1519.29681,0.04883
1517.80702,0.05516
1516.31724,0.04608
1514.82745,0.04089
1513.33766,0.05092
1511.84787,0.06098
1510.35808,0.06221
1508.86829,0.04236
1507.37850,0.04318
1505.88872,0.04017
1504.39893,0.05239
1502.90914,0.05329
1501.41935,0.06987
1499.92956,0.08421
1498.43977,0.07973
1496.94999,0.07482
1495.46020,0.08560
1493.97041,0.09458
1492.48062,0.09724
1490.99083,0.11194
1489.50104,0.10239
1488.01125,0.11056
1486.52147,0.11876
1485.03168,0.13810
1483.54189,0.15066
1482.05210,0.16914
1480.56231,0.16654
1479.07252,0.17871
1477.58274,0.20271
1476.09295,0.19269
1474.60316,0.19699
1473.11337,0.21449
1471.62358,0.20090
1470.13379,0.21481
1468.64401,0.24259
1467.15422,0.24678
1465.66443,0.25497
1464.17464,0.26319
1462.68485,0.30082
1461.19506,0.32554
1459.70527,0.35369
1458.21549,0.38300
1456.72570,0.44048
1455.23591,0.48482
1453.74612,0.57345
1452.25633,0.61080
1450.76654,0.65067
1449.27676,0.66105
1447.78697,0.64354
1446.29718,0.61606
1444.80739,0.60325
1443.31760,0.59046
1441.82781,0.54694
1440.33802,0.51229
1438.84824,0.49219
1437.35845,0.47530
1435.86866,0.44640
1434.37887,0.44817
1432.88908,0.46585
1431.39929,0.52011
1429.90951,0.58824
1428.41972,0.69884
1426.92993,0.75952
1425.44014,0.79775
1423.95035,0.80582
1422.46056,0.81391
1420.97078,0.86515
1419.48099,0.86830
1417.99120,0.89326
1416.50141,0.88351
1415.01162,0.83429
1413.52183,0.80665
1412.03204,0.77405
1410.54226,0.72172
1409.05247,0.67691
1407.56268,0.62917
1406.07289,0.56238
1404.58310,0.52978
1403.09331,0.49721
1401.60353,0.44230
1400.11374,0.40535
1398.62395,0.35389
1397.13416,0.29270
1395.64437,0.25400
1394.15458,0.23780
1392.66479,0.20551
1391.17501,0.13805
1389.68522,0.12079
1388.19543,0.07540
1386.70564,0.06977
1385.21585,0.06415
1383.72606,0.05448
1382.23628,0.04369
1380.74649,0.00954
1379.25670,0.01856
1377.76691,0.02714
1376.27712,0.00305
1374.78733,0.00666
1373.29755,0.01484
1371.80776,0.00442
1370.31797,0.01293
1368.82818,0.01249
1367.33839,0.01207
1365.84860,0.00612
1364.35881,0.03280
1362.86903,0.03975
1361.37924,0.05081
1359.88945,0.06098
1358.39966,0.09297
1356.90987,0.11114
1355.42008,0.15998
1353.93030,0.21906
1352.44051,0.24990
1350.95072,0.28076
1349.46093,0.34173
1347.97114,0.39000
1346.48135,0.45374
1344.99156,0.52363
1343.50178,0.56494
1342.01199,0.61422
1340.52220,0.70166
1339.03241,0.75848
1337.54262,0.82736
1336.05283,0.84143
1334.56305,0.85554
1333.07326,0.87295
1331.58347,0.85566
1330.09368,0.85882
1328.60389,0.89175
1327.11410,0.86000
1325.62432,0.83350
1324.13453,0.80951
1322.64474,0.73380
1321.15495,0.67604
1319.66516,0.66280
1318.17537,0.64958
1316.68558,0.61891
1315.19580,0.56670
1313.70601,0.50452
1312.21622,0.49843
1310.72643,0.48102
1309.23664,0.43776
1307.74685,0.40700
1306.25707,0.35470
1304.76728,0.33001
1303.27749,0.30534
1301.78770,0.28512
1300.29791,0.25085
1298.80812,0.20503
1297.31834,0.18988
1295.82855,0.16976
1294.33876,0.12264
1292.84897,0.10098
1291.35918,0.10703
1289.86939,0.09961
1288.37960,0.09220
1286.88982,0.08289
1285.40003,0.07088
1283.91024,0.05458
1282.42045,0.06214
1280.93066,0.04181
1279.44087,0.02944
1277.95109,0.03117
1276.46130,0.03020
1274.97151,0.03107
1273.48172,0.03196
1271.99193,0.01517
1270.50214,0.01520
1269.01235,0.01912
1267.52257,0.02102
1266.03278,0.01976
1264.54299,0.03056
1263.05320,0.03071
1261.56341,0.03021
1260.07362,0.02973
1258.58384,0.02564
1257.09405,0.01249
1255.60426,0.02071
1254.11447,0.01488
1252.62468,0.00612
1251.13489,0.01650
1249.64511,0.01987
1248.15532,0.00895
1246.66553,0.01101
1245.17574,0.01308
1243.68595,0.00746
1242.19616,0.02130
1240.70637,0.01881
1239.21659,0.02452
1237.72680,0.03888
1236.23701,0.02262
1234.74722,0.03112
1233.25743,0.02660
1231.76764,0.02210
1230.27786,0.01093
1228.78807,0.01431
1227.29828,0.02202
1225.80849,0.01751
1224.31870,0.01233
1222.82891,0.01467
1221.33912,0.02044
1219.84934,0.02726
1218.35955,0.03410
1216.86976,0.02518
1215.37997,0.03990
1213.89018,0.04329
1212.40039,0.05647
1210.91061,0.05424
1209.42082,0.05770
1207.93103,0.05426
1206.44124,0.05085
1204.95145,0.05007
1203.46166,0.04909
1201.97188,0.05086
1200.48209,0.04335
1198.99230,0.04448
1197.50251,0.03724
1196.01272,0.05704
1194.52293,0.04349
1193.03314,0.02996
1191.54336,0.03984
1190.05357,0.03908
1188.56378,0.02698
1187.07399,0.01719
1185.58420,0.02217
1184.09441,0.02808
1182.60463,0.02380
1181.11484,0.01955
1179.62505,0.02009
1178.13526,0.00612
1176.64547,0.01393
1175.15568,0.02790
1173.66589,0.01964
1172.17611,0.03978
1170.68632,0.03441
1169.19653,0.02906
1167.70674,0.02703
1166.21695,0.01594
1164.72716,0.04097
1163.23738,0.04105
1161.74759,0.05932
1160.25780,0.06898
1158.76801,0.06607
1157.27822,0.06319
1155.78843,0.06816
1154.29865,0.08677
1152.80886,0.08588
1151.31907,0.10659
1149.82928,0.11074
1148.33949,0.12559
1146.84970,0.12083
1145.35991,0.11609
1143.87013,0.14441
1142.38034,0.15481
1140.89055,0.16025
1139.40076,0.15595
1137.91097,0.18685
1136.42118,0.19917
1134.93140,0.20448
1133.44161,0.20980
1131.95182,0.22537
1130.46203,0.20963
1128.97224,0.22525
1127.48245,0.23317
1125.99266,0.25360
1124.50288,0.26202
1123.01309,0.26184
1121.52330,0.26169
1120.03351,0.24884
1118.54372,0.22263
1117.05393,0.23298
1115.56415,0.24200
1114.07436,0.23402
1112.58457,0.23185
1111.09478,0.22971
1109.60499,0.22316
1108.11520,0.23003
1106.62542,0.24986
1105.13563,0.22886
1103.64584,0.23693
1102.15605,0.22097
1100.66626,0.20821
1099.17647,0.19547
1097.68668,0.22657
1096.19690,0.18664
1094.70711,0.18919
1093.21732,0.20288
1091.72753,0.18640
1090.23774,0.18278
1088.74795,0.17918
1087.25817,0.17094
1085.76838,0.16251
1084.27859,0.15909
1082.78880,0.16500
1081.29901,0.13803
1079.80922,0.15171
1078.31943,0.16291
1076.82965,0.17414
1075.33986,0.16928
1073.85007,0.18896
1072.36028,0.19844
1070.87049,0.20228
1069.38070,0.24518
1067.89092,0.23794
1066.40113,0.23073
1064.91134,0.25463
1063.42155,0.32964
1061.93176,0.40717
1060.44197,0.50266
1058.95219,0.57183
1057.46240,0.61731
1055.97261,0.66281
1054.48282,0.76475
1052.99303,0.80951
1051.50324,0.84498
1050.01345,0.84938
1048.52367,0.84381
1047.03388,0.84349
1045.54409,0.84319
1044.05430,0.82793
1042.56451,0.75958
1041.07472,0.65993
1039.58494,0.59480
1038.09515,0.57850
1036.60536,0.55236
1035.11557,0.52623
1033.62578,0.43578
1032.13599,0.41027
1030.64620,0.34166
1029.15642,0.28646
1027.66663,0.27249
1026.17684,0.25854
1024.68705,0.23996
1023.19726,0.20234
1021.70747,0.17405
1020.21769,0.15077
1018.72790,0.11844
1017.23811,0.11179
1015.74832,0.10516
1014.25853,0.09378
1012.76874,0.08107
1011.27896,0.05976
1009.78917,0.07411
1008.29938,0.07010
1006.80959,0.06554
1005.31980,0.06100
1003.83001,0.05025
1002.34022,0.01614
1000.85044,0.00612
999.36065,0.03202
997.87086,0.03762
996.38107,0.04325
994.89128,0.05015
993.40149,0.06252
991.91171,0.09512
990.42192,0.09278
988.93213,0.10069
987.44234,0.09806
985.95255,0.09545
984.46276,0.09753
982.97297,0.07511
981.48319,0.05725
979.99340,0.06984
978.50361,0.05793
977.01382,0.04605
975.52403,0.02375
974.03424,0.03644
972.54446,0.02463
971.05467,0.01920
969.56488,0.01697
968.07509,0.02180
966.58530,0.02666
965.09551,0.04403
963.60573,0.01306
962.11594,0.00664
960.62615,0.00750
959.13636,0.00680
957.64657,0.00612
956.15678,0.01869
954.66699,0.02219
953.17721,0.04275
951.68742,0.05584
950.19763,0.05783
948.70784,0.05985
947.21805,0.07097
945.72826,0.06531
944.23848,0.07875
942.74869,0.10356
941.25890,0.10456
939.76911,0.12397
938.27932,0.14341
936.78953,0.16287
935.29974,0.19574
933.80996,0.20458
932.32017,0.19210
930.83038,0.21370
929.34059,0.23532
927.85080,0.23994
926.36101,0.25753
924.87123,0.27968
923.38144,0.33272
921.89165,0.36581
920.40186,0.39893
918.91207,0.49858
917.42228,0.57510
915.93250,0.74108
914.44271,0.95681
912.95292,1.04271
911.46313,1.12863
909.97334,1.28336
908.48355,1.48216
906.99376,1.74431
905.50398,1.87641
904.01419,1.91887
902.52440,1.96135
901.03461,2.00000
899.54482,1.92017
898.05503,1.81472
896.56525,1.62598
895.07546,1.50900
893.58567,1.39204
892.09588,1.16070
890.60609,0.92756
889.11630,0.69240
887.62651,0.48519
886.13673,0.42215
884.64694,0.35914
883.15715,0.25596
881.66736,0.17030
880.17757,0.11689
878.68778,0.10334
877.19800,0.08982
875.70821,0.06100
874.21842,0.06126
872.72863,0.03612
871.23884,0.03847
869.74905,0.03245
868.25927,0.02645
866.76948,0.01638
865.27969,0.02655
863.78990,0.02629
862.30011,0.02607
860.81032,0.03437
859.32053,0.04270
857.83075,0.05617
856.34096,0.07328
854.85117,0.09860
853.36138,0.09329
851.87159,0.09550
850.38180,0.09773
848.89202,0.12609
847.40223,0.14131
845.91244,0.14498
844.42265,0.14799
842.93286,0.15102
841.44307,0.16429
839.95329,0.18054
838.46350,0.19726
836.97371,0.22059
835.48392,0.21489
833.99413,0.20921
832.50434,0.20220
831.01455,0.17705
829.52477,0.16781
828.03498,0.16177
826.54519,0.15780
825.05540,0.15386
823.56561,0.13495
822.07582,0.11948
820.58604,0.12174
819.09625,0.11369
817.60646,0.10566
816.11667,0.11253
814.62688,0.10240
813.13709,0.10341
811.64730,0.10990
810.15752,0.10653
808.66773,0.10319
807.17794,0.08954
805.68815,0.10135
804.19836,0.11113
802.70857,0.11526
801.21879,0.11942
799.72900,0.11089
798.23921,0.09988
796.74942,0.10275
795.25963,0.10722
793.76984,0.11173
792.28006,0.10785
790.79027,0.12058
789.30048,0.13764
787.81069,0.16244
786.32090,0.16785
784.83111,0.17329
783.34132,0.21701
781.85154,0.24282
780.36175,0.24254
778.87196,0.26351
777.38217,0.28451
775.89238,0.32221
774.40259,0.33588
772.91281,0.31643
771.42302,0.29325
769.93323,0.27010
768.44344,0.25708
766.95365,0.21457
765.46386,0.18207
763.97407,0.16163
762.48429,0.15710
760.99450,0.15259
759.50471,0.11270
758.01492,0.08281
756.52513,0.08928
755.03534,0.08067
753.54556,0.07208
752.05577,0.06295
750.56598,0.05294
749.07619,0.04840
747.58640,0.04513
746.09661,0.04189
744.60683,0.03605
743.11704,0.02571
741.62725,0.01175
740.13746,0.01019
738.64767,0.00865
737.15788,0.00612
735.66809,0.00760
734.17831,0.02546
732.68852,0.02336
731.19873,0.02128
729.70894,0.00493
728.21915,0.01998
726.72936,0.01507
725.23958,0.01269
723.74979,0.01589
722.26000,0.01912
720.77021,0.01272
719.28042,0.00612
717.79063,0.01258
716.30084,0.00884
714.81106,0.00514
713.32127,0.01145
711.83148,0.01190
710.34169,0.02961
708.85190,0.03214
707.36211,0.03470
705.87233,0.04749
704.38254,0.03216
702.89275,0.02843
701.40296,0.03756
699.91317,0.04670
698.42338,0.05621
696.93360,0.07732
695.44381,0.09096
693.95402,0.10554
692.46423,0.12014
690.97444,0.12636
689.48465,0.13987
687.99486,0.15250
686.50508,0.16572
685.01529,0.17896
683.52550,0.21300
682.03571,0.22981
680.54592,0.25300
679.05613,0.25249
677.56635,0.25200
676.07656,0.24394
674.58677,0.23136
673.09698,0.24195
671.60719,0.23033
670.11740,0.21873
668.62761,0.18354
667.13783,0.15110
665.64804,0.14377
664.15825,0.13646
662.66846,0.08684
661.17867,0.08083
659.68888,0.03943
658.19910,0.04618
656.70931,0.05296
655.21952,0.05612
653.72973,0.04660
652.23994,0.02961
650.75015,0.02672
649.26037,0.02385
647.77058,0.02010
646.28079,0.03067
644.79100,0.03537
643.30121,0.03430
641.81142,0.03325
640.32163,0.02394
638.83185,0.04281
637.34206,0.02038
635.85227,0.01659
634.36248,0.01283
632.87269,0.01861
631.38290,0.03123
629.89312,0.01595
628.40333,0.01102
626.91354,0.00612
625.42375,0.01411
623.93396,0.01963
622.44417,0.01996
620.95438,0.02031
619.46460,0.04996
617.97481,0.04831
616.48502,0.07529
614.99523,0.09616
613.50544,0.11706
612.01565,0.12618
610.52587,0.14781
609.03608,0.18739
607.54629,0.20271
606.05650,0.21805
604.56671,0.26974
603.07692,0.30351
601.58714,0.30939
600.09735,0.31530
598.60756,0.35732
597.11777,0.37099
595.62798,0.38218
594.13819,0.37286
592.64840,0.36356
591.15862,0.36824
589.66883,0.34458
588.17904,0.29846
586.68925,0.26031
585.19946,0.22219
583.70967,0.16616
582.21989,0.12082
580.73010,0.10717
579.24031,0.09354
577.75052,0.06485
576.26073,0.04435
574.77094,0.03022
573.28115,0.03758
571.79137,0.04496
570.30158,0.05157
568.81179,0.07205
567.32200,0.07700
565.83221,0.08198
564.34242,0.08732
562.85264,0.09178
561.36285,0.11578
559.87306,0.12165
558.38327,0.12754
556.89348,0.13391
555.40369,0.15052
553.91391,0.14536
552.42412,0.14023
550.93433,0.14102
549.44454,0.15023
547.95475,0.14313
546.46496,0.15715
544.97517,0.17121
543.48539,0.19414
541.99560,0.24433
540.50581,0.25369
539.01602,0.26307
537.52623,0.29200
536.03644,0.34024
534.54666,0.37444
533.05687,0.40128
531.56708,0.42815
530.07729,0.45878
528.58750,0.49534
527.09771,0.51457
525.60792,0.53381
524.11814,0.61925
522.62835,0.66317
521.13856,0.70916
519.64877,0.75075
518.15898,0.79236
516.66919,0.82207
515.17941,0.79824
513.68962,0.82936
512.19983,0.86051
510.71004,0.79544
509.22025,0.75422
507.73046,0.63971
506.24068,0.60648
504.75089,0.57328
503.26110,0.47087
501.77131,0.37620
500.28152,0.33966
498.79173,0.30316
497.30194,0.22059
495.81216,0.17777
494.32237,0.15461
492.83258,0.13148
491.34279,0.09236
489.85300,0.07870
488.36321,0.08503
486.87343,0.08549
485.38364,0.08597
483.89385,0.08534
482.40406,0.07157
480.91427,0.08937
479.42448,0.10720
477.93469,0.11166
476.44491,0.12681
474.95512,0.14244
473.46533,0.15810
471.97554,0.15244
470.48575,0.17268
468.99596,0.15890
467.50618,0.15966
466.01639,0.16046
464.52660,0.10951
463.03681,0.09355
461.54702,0.08647
460.05723,0.07941
458.56745,0.03969
457.07766,0.03813
455.58787,0.02320
454.09808,0.00829
452.60829,0.00612
451.11850,0.00805
449.62871,0.01034
448.13893,0.01266
446.64914,0.03759
445.15935,0.02531
443.66956,0.02872
442.17977,0.03102
440.68998,0.03334
439.20020,0.03728
437.71041,0.03647
436.22062,0.03626
434.73083,0.03607
433.24104,0.05326
431.75125,0.02917
430.26146,0.03019
428.77168,0.03123
427.28189,0.03694
425.79210,0.06062
424.30231,0.05946
422.81252,0.05832
421.32273,0.05119
419.83295,0.03524
418.34316,0.03565
416.85337,0.03609
415.36358,0.02951
413.87379,0.03726
412.38400,0.02596
410.89422,0.01469
409.40443,0.02932
407.91464,0.02899
406.42485,0.03822
404.93506,0.03896
403.44527,0.03972
401.95548,0.03972
400.46570,0.04087
398.97591,0.04795
397.48612,0.05505
395.99633,0.02245
394.50654,0.03732
393.01675,0.02951
391.52697,0.02173
390.03718,0.02086
388.54739,0.03045
387.05760,0.02702
385.56781,0.02361
384.07802,0.03078
382.58824,0.01663
381.09845,0.01738
379.60866,0.01815
378.11887,0.02155
376.62908,0.01636
375.13929,0.01811
373.64950,0.01988
372.15972,0.02111
370.66993,0.03485
369.18014,0.03047
367.69035,0.02611
366.20056,0.04368
364.71077,0.03743
363.22099,0.03076
361.73120,0.02411
360.24141,0.01227
358.75162,0.00612
357.26183,0.01812
355.77204,0.03014
354.28225,0.05830
352.79247,0.07355
351.30268,0.07724
349.81289,0.08096
348.32310,0.06813
346.83331,0.07847
345.34352,0.06887
343.85374,0.05929
342.36395,0.04701
340.87416,0.05836
339.38437,0.03489
337.89458,0.01145
336.40479,0.04353
334.91501,0.04045
333.42522,0.04216
331.93543,0.04389
330.44564,0.04996
328.95585,0.03971
327.46606,0.04924
325.97627,0.05879
324.48649,0.04543
322.99670,0.03709
321.50691,0.04104
320.01712,0.04501
318.52733,0.05286
317.03754,0.08026
315.54776,0.08327
314.05797,0.08632
312.56818,0.14307
311.07839,0.11971
309.58860,0.10138
308.09881,0.08306
306.60902,0.04593
305.11924,0.02698
303.62945,0.02679
302.13966,0.00612
300.64987,0.02506
299.16008,0.00612
