1778.52000,0.00199
1777.03021,0.01237
1775.54042,0.01024
1774.05063,0.01006
1772.56085,0.01352
1771.07106,0.01556
1769.58127,0.01088
1768.09148,0.01273
1766.60169,0.01172
1765.11190,0.02470
1763.62212,0.01168
1762.13233,0.01749
1760.64254,0.01609
1759.15275,0.01327
1757.66296,0.01626
1756.17317,0.01324
1754.68339,0.02231
1753.19360,0.01308
1751.70381,0.01086
1750.21402,0.00892
1748.72423,0.00970
1747.23444,0.01291
1745.74465,0.01230
1744.25487,0.01411
1742.76508,0.01572
1741.27529,0.01084
1739.78550,0.01008
1738.29571,0.01104
1736.80592,0.01580
1735.31614,0.01649
1733.82635,0.00998
1732.33656,0.00735
1730.84677,0.00643
1729.35698,0.00674
1727.86719,0.01117
1726.37740,0.00575
1724.88762,0.01698
1723.39783,0.01088
1721.90804,0.00023
1720.41825,0.00657
1718.92846,0.00112
1717.43867,0.01233
1715.94889,0.00500
1714.45910,0.00903
1712.96931,0.00199
1711.47952,0.00604
1709.98973,0.00602
1708.49994,0.00000
1707.01016,0.00220
1705.52037,0.00442
1704.03058,0.01341
1702.54079,0.00436
1701.05100,0.00304
1699.56121,0.01452
1698.07142,0.00650
1696.58164,0.01441
1695.09185,0.01319
1693.60206,0.01875
1692.11227,0.01926
1690.62248,0.02222
1689.13269,0.01700
1687.64291,0.01325
1686.15312,0.03363
1684.66333,0.02102
1683.17354,0.03277
1681.68375,0.03996
1680.19396,0.03514
1678.70417,0.04263
1677.21439,0.04387
1675.72460,0.03213
1674.23481,0.04451
1672.74502,0.04800
1671.25523,0.06863
1669.76544,0.06205
1668.27566,0.06055
1666.78587,0.06824
1665.29608,0.08004
1663.80629,0.07236
1662.31650,0.08928
1660.82671,0.08260
1659.33693,0.09138
1657.84714,0.08692
1656.35735,0.07767
1654.86756,0.08050
1653.37777,0.07251
1651.88798,0.08670
1650.39819,0.08695
1648.90841,0.09590
1647.41862,0.08752
1645.92883,0.08785
1644.43904,0.08819
1642.94925,0.08808
1641.45946,0.09258
1639.96968,0.08987
1638.47989,0.07706
1636.99010,0.07946
1635.50031,0.08863
1634.01052,0.08000
1632.52073,0.07958
1631.03094,0.08473
1629.54116,0.08677
1628.05137,0.09847
1626.56158,0.10779
1625.07179,0.10919
1623.58200,0.10579
1622.09221,0.11277
1620.60243,0.09858
1619.11264,0.10706
1617.62285,0.10351
1616.13306,0.10144
1614.64327,0.10012
1613.15348,0.10243
1611.66370,0.11441
1610.17391,0.09557
1608.68412,0.09338
1607.19433,0.09579
1605.70454,0.08112
1604.21475,0.08612
1602.72496,0.09113
1601.23518,0.09076
1599.74539,0.09932
1598.25560,0.10429
1596.76581,0.09965
1595.27602,0.08395
1593.78623,0.09767
1592.29645,0.09093
1590.80666,0.08591
1589.31687,0.07609
1587.82708,0.09039
1586.33729,0.07894
1584.84750,0.08895
1583.35771,0.07803
1581.86793,0.08207
1580.37814,0.08397
1578.88835,0.06251
1577.39856,0.06952
1575.90877,0.06956
1574.41898,0.05373
1572.92920,0.05430
1571.43941,0.04888
1569.94962,0.04529
1568.45983,0.04172
1566.97004,0.04360
1565.48025,0.03924
1563.99047,0.03032
1562.50068,0.03661
1561.01089,0.04173
1559.52110,0.03264
1558.03131,0.02841
1556.54152,0.03335
1555.05173,0.02700
1553.56195,0.01223
1552.07216,0.02038
1550.58237,0.01796
1549.09258,0.00664
1547.60279,0.01438
1546.11300,0.01733
1544.62322,0.02296
1543.13343,0.00523
1541.64364,0.00199
1540.15385,0.00263
1538.66406,0.00328
1537.17427,0.00539
1535.68448,0.01476
1534.19470,0.02149
1532.70491,0.01573
1531.21512,0.01336
1529.72533,0.02258
1528.23554,0.01809
1526.74575,0.02592
1525.25597,0.02654
1523.76618,0.03032
1522.27639,0.02376
1520.78660,0.02494
1519.29681,0.03915
1517.80702,0.03460
1516.31724,0.04934
1514.82745,0.03303
1513.33766,0.03072
1511.84787,0.02843
1510.35808,0.03484
1508.86829,0.04682
1507.37850,0.04292
1505.88872,0.05133
1504.39893,0.05134
1502.90914,0.05474
1501.41935,0.07094
1499.92956,0.07295
1498.43977,0.07498
1496.94999,0.05535
1495.46020,0.07044
1493.97041,0.08315
1492.48062,0.09227
1490.99083,0.11057
1489.50104,0.11540
1488.01125,0.11508
1486.52147,0.11478
1485.03168,0.14908
1483.54189,0.19377
1482.05210,0.19584
1480.56231,0.18756
1479.07252,0.22245
1477.58274,0.25133
1476.09295,0.24699
1474.60316,0.25520
1473.11337,0.26705
1471.62358,0.29001
1470.13379,0.29107
1468.64401,0.28252
1467.15422,0.29374
1465.66443,0.29668
1464.17464,0.29965
1462.68485,0.35697
1461.19506,0.38468
1459.70527,0.41628
1458.21549,0.46982
1456.72570,0.54291
1455.23591,0.61144
1453.74612,0.69566
1452.25633,0.72256
1450.76654,0.73671
1449.27676,0.73595
1447.78697,0.71906
1446.29718,0.69546
1444.80739,0.67212
1443.31760,0.64881
1441.82781,0.63973
1440.33802,0.56033
1438.84824,0.55877
1437.35845,0.51194
1435.86866,0.49960
1434.37887,0.49233
1432.88908,0.53522
1431.39929,0.60511
1429.90951,0.67334
1428.41972,0.75919
1426.92993,0.77253
1425.44014,0.85289
1423.95035,0.87411
1422.46056,0.89536
1420.97078,0.92977
1419.48099,0.93022
1417.99120,0.95046
1416.50141,0.94880
1415.01162,0.91584
1413.52183,0.85302
1412.03204,0.80372
1410.54226,0.76120
1409.05247,0.68086
1407.56268,0.62851
1406.07289,0.54316
1404.58310,0.52471
1403.09331,0.50629
1401.60353,0.42993
1400.11374,0.38348
1398.62395,0.32718
1397.13416,0.28753
1395.64437,0.25248
1394.15458,0.22685
1392.66479,0.18293
1391.17501,0.13447
1389.68522,0.09686
1388.19543,0.09134
1386.70564,0.07969
1385.21585,0.06806
1383.72606,0.04912
1382.23628,0.02851
1380.74649,0.02599
1379.25670,0.01796
1377.76691,0.02273
1376.27712,0.01282
1374.78733,0.00535
1373.29755,0.00199
1371.80776,0.00778
1370.31797,0.01529
1368.82818,0.01860
1367.33839,0.02193
1365.84860,0.03722
1364.35881,0.03615
1362.86903,0.05558
1361.37924,0.06299
1359.88945,0.07597
1358.39966,0.09403
1356.90987,0.12176
1355.42008,0.17047
1353.93030,0.25150
1352.44051,0.28147
1350.95072,0.31146
1349.46093,0.38510
1347.97114,0.42936
1346.48135,0.50713
1344.99156,0.57241
1343.50178,0.65337
1342.01199,0.74062
1340.52220,0.82572
1339.03241,0.88627
1337.54262,0.93962
1336.05283,0.93878
1334.56305,0.93797
1333.07326,0.93886
1331.58347,0.91448
1330.09368,0.92723
1328.60389,0.92145
1327.11410,0.89305
1325.62432,0.88925
1324.13453,0.82933
1322.64474,0.77353
1321.15495,0.74668
1319.66516,0.74334
1318.17537,0.74002
1316.68558,0.64360
1315.19580,0.60287
1313.70601,0.61204
1312.21622,0.57400
1310.72643,0.53623
1309.23664,0.49198
1307.74685,0.45113
1306.25707,0.40091
1304.76728,0.38541
1303.27749,0.36993
1301.78770,0.31472
1300.29791,0.28460
1298.80812,0.24390
1297.31834,0.21647
1295.82855,0.18763
1294.33876,0.16314
1292.84897,0.14615
1291.35918,0.10654
1289.86939,0.09960
1288.37960,0.09269
1286.88982,0.08495
1285.40003,0.08809
1283.91024,0.08329
1282.42045,0.08190
1280.93066,0.05836
1279.44087,0.05124
1277.95109,0.04775
1276.46130,0.02429
1274.97151,0.02434
1273.48172,0.02442
1271.99193,0.02706
1270.50214,0.03743
1269.01235,0.03361
1267.52257,0.03848
1266.03278,0.01688
1264.54299,0.02976
1263.05320,0.02700
1261.56341,0.02511
1260.07362,0.02325
1258.58384,0.01647
1257.09405,0.00489
1255.60426,0.01455
1254.11447,0.01989
1252.62468,0.01466
1251.13489,0.01981
1249.64511,0.01920
1248.15532,0.00199
1246.66553,0.00663
1245.17574,0.01130
1243.68595,0.02033
1242.19616,0.03275
1240.70637,0.03050
1239.21659,0.03503
1237.72680,0.02415
1236.23701,0.03933
1234.74722,0.02562
1233.25743,0.03205
1231.76764,0.03850
1230.27786,0.02848
1228.78807,0.02209
1227.29828,0.00199
1225.80849,0.01794
1224.31870,0.01030
1222.82891,0.02220
1221.33912,0.04016
1219.84934,0.03536
1218.35955,0.03059
1216.86976,0.05416
1215.37997,0.07342
1213.89018,0.07438
1212.40039,0.09152
1210.91061,0.09157
1209.42082,0.08780
1207.93103,0.07176
1206.44124,0.05574
1204.95145,0.07758
1203.46166,0.07173
1201.97188,0.05242
1200.48209,0.04662
1198.99230,0.05507
1197.50251,0.04594
1196.01272,0.04721
1194.52293,0.04621
1193.03314,0.04524
1191.54336,0.05549
1190.05357,0.03541
1188.56378,0.04692
1187.07399,0.02593
1185.58420,0.02062
1184.09441,0.02618
1182.60463,0.02502
1181.11484,0.02388
1179.62505,0.00397
1178.13526,0.01662
1176.64547,0.01628
1175.15568,0.00199
1173.66589,0.00259
1172.17611,0.03309
1170.68632,0.03000
1169.19653,0.02694
1167.70674,0.02089
1166.21695,0.02715
1164.72716,0.03826
1163.23738,0.05035
1161.74759,0.03693
1160.25780,0.05583
1158.76801,0.06053
1157.27822,0.06525
1155.78843,0.07217
1154.29865,0.08201
1152.80886,0.08753
1151.31907,0.10296
1149.82928,0.10612
1148.33949,0.10955
1146.84970,0.11421
1145.35991,0.11889
1143.87013,0.13854
1142.38034,0.14761
1140.89055,0.15140
1139.40076,0.17787
1137.91097,0.18292
1136.42118,0.17570
1134.93140,0.19080
1133.44161,0.20592
1131.95182,0.23203
1130.46203,0.23576
1128.97224,0.23469
1127.48245,0.21413
1125.99266,0.24564
1124.50288,0.26079
1123.01309,0.25476
1121.52330,0.24876
1120.03351,0.23459
1118.54372,0.23875
1117.05393,0.24367
1115.56415,0.23318
1114.07436,0.25236
1112.58457,0.23338
1111.09478,0.21441
1109.60499,0.23728
1108.11520,0.24210
1106.62542,0.26020
1105.13563,0.23110
1103.64584,0.23214
1102.15605,0.23706
1100.66626,0.23381
1099.17647,0.23059
1097.68668,0.22209
1096.19690,0.22494
1094.70711,0.20878
1093.21732,0.23626
1091.72753,0.21871
1090.23774,0.20118
1088.74795,0.18367
1087.25817,0.20161
1085.76838,0.17042
1084.27859,0.21660
1082.78880,0.21317
1081.29901,0.19338
1079.80922,0.20711
1078.31943,0.22098
1076.82965,0.23487
1075.33986,0.24554
1073.85007,0.27527
1072.36028,0.26840
1070.87049,0.29842
1069.38070,0.31136
1067.89092,0.32203
1066.40113,0.33273
1064.91134,0.37827
1063.42155,0.50576
1061.93176,0.60773
1060.44197,0.71985
1058.95219,0.78404
1057.46240,0.85176
1055.97261,0.91949
1054.48282,1.01533
1052.99303,1.05504
1051.50324,1.08586
1050.01345,1.05792
1048.52367,1.04205
1047.03388,1.04548
1045.54409,1.04893
1044.05430,1.01868
1042.56451,0.89592
1041.07472,0.79367
1039.58494,0.74445
1038.09515,0.67719
1036.60536,0.63862
1035.11557,0.60008
1033.62578,0.52663
1032.13599,0.45368
1030.64620,0.38895
1029.15642,0.34329
1027.66663,0.31041
1026.17684,0.27756
1024.68705,0.26257
1023.19726,0.23989
1021.70747,0.20688
1020.21769,0.18160
1018.72790,0.16984
1017.23811,0.14991
1015.74832,0.13000
1014.25853,0.13277
1012.76874,0.12521
1011.27896,0.13887
1009.78917,0.12967
1008.29938,0.12362
1006.80959,0.10845
1005.31980,0.09329
1003.83001,0.04925
1002.34022,0.03005
1000.85044,0.04124
999.36065,0.06498
997.87086,0.07983
996.38107,0.09471
994.89128,0.11443
993.40149,0.13971
991.91171,0.14021
990.42192,0.14916
988.93213,0.16849
987.44234,0.16075
985.95255,0.15303
984.46276,0.13147
982.97297,0.13838
981.48319,0.13688
979.99340,0.10914
978.50361,0.10118
977.01382,0.09324
975.52403,0.07955
974.03424,0.05215
972.54446,0.02429
971.05467,0.01959
969.56488,0.01660
968.07509,0.02761
966.58530,0.03864
965.09551,0.01356
963.60573,0.00199
962.11594,0.00560
960.62615,0.00200
959.13636,0.00855
957.64657,0.01512
956.15678,0.01906
954.66699,0.01074
953.17721,0.03763
951.68742,0.03852
950.19763,0.05365
948.70784,0.06880
947.21805,0.05531
945.72826,0.08665
944.23848,0.08935
942.74869,0.08991
941.25890,0.09796
939.76911,0.11181
938.27932,0.12570
936.78953,0.15406
935.29974,0.18558
933.80996,0.18845
932.32017,0.19810
930.83038,0.21138
929.34059,0.22469
927.85080,0.22959
926.36101,0.23837
924.87123,0.26476
923.38144,0.33262
921.89165,0.36160
920.40186,0.39060
918.91207,0.45950
917.42228,0.58698
915.93250,0.76653
914.44271,0.96273
912.95292,1.05269
911.46313,1.14268
909.97334,1.35896
908.48355,1.60128
906.99376,1.82243
905.50398,1.92697
904.01419,1.96348
902.52440,2.00000
901.03461,1.95932
899.54482,1.96180
898.05503,1.81564
896.56525,1.59600
895.07546,1.46868
893.58567,1.34138
892.09588,1.03532
890.60609,0.80422
889.11630,0.61531
887.62651,0.44594
886.13673,0.38877
884.64694,0.33162
883.15715,0.23799
881.66736,0.16341
880.17757,0.12839
878.68778,0.10314
877.19800,0.07792
875.70821,0.06417
874.21842,0.03840
872.72863,0.03000
871.23884,0.02500
869.74905,0.02918
868.25927,0.03338
866.76948,0.03039
865.27969,0.03850
863.78990,0.04711
862.30011,0.02853
860.81032,0.04466
859.32053,0.06082
857.83075,0.08641
856.34096,0.10141
854.85117,0.10440
853.36138,0.10523
851.87159,0.12429
850.38180,0.14337
848.89202,0.17392
847.40223,0.18113
845.91244,0.19968
844.42265,0.20597
842.93286,0.21228
841.44307,0.20248
839.95329,0.25486
838.46350,0.27137
836.97371,0.29875
835.48392,0.28796
833.99413,0.27719
832.50434,0.25163
831.01455,0.23863
829.52477,0.24299
828.03498,0.23606
826.54519,0.21855
825.05540,0.20107
823.56561,0.18313
822.07582,0.16955
820.58604,0.15985
819.09625,0.15367
817.60646,0.14751
816.11667,0.14247
814.62688,0.13118
813.13709,0.12329
811.64730,0.13567
810.15752,0.13422
808.66773,0.13279
807.17794,0.15729
805.68815,0.15482
804.19836,0.15335
802.70857,0.15768
801.21879,0.16204
799.72900,0.15052
798.23921,0.14529
796.74942,0.14948
795.25963,0.14635
793.76984,0.14324
792.28006,0.15714
790.79027,0.16457
789.30048,0.20696
787.81069,0.20961
786.32090,0.23530
784.83111,0.26101
783.34132,0.31290
781.85154,0.32818
780.36175,0.37650
778.87196,0.39665
777.38217,0.41683
775.89238,0.46257
774.40259,0.46424
772.91281,0.45341
771.42302,0.45200
769.93323,0.45061
768.44344,0.39480
766.95365,0.35852
765.46386,0.30902
763.97407,0.23978
762.48429,0.22141
760.99450,0.20307
759.50471,0.17174
758.01492,0.13055
756.52513,0.10409
755.03534,0.10006
753.54556,0.09606
752.05577,0.09882
750.56598,0.10619
749.07619,0.07576
747.58640,0.07740
746.09661,0.07906
744.60683,0.06412
743.11704,0.05210
741.62725,0.01962
740.13746,0.01873
738.64767,0.01786
737.15788,0.01678
735.66809,0.00199
734.17831,0.02136
732.68852,0.02196
731.19873,0.02258
729.70894,0.02515
728.21915,0.00871
726.72936,0.00628
725.23958,0.01999
723.74979,0.01711
722.26000,0.01424
720.77021,0.02659
719.28042,0.02377
717.79063,0.01183
716.30084,0.00690
714.81106,0.00199
713.32127,0.00720
711.83148,0.02160
710.34169,0.02782
708.85190,0.03046
707.36211,0.03312
705.87233,0.03749
704.38254,0.04357
702.89275,0.02968
701.40296,0.04846
699.91317,0.06727
698.42338,0.06911
696.93360,0.09388
695.44381,0.09914
693.95402,0.11239
692.46423,0.12566
690.97444,0.11317
689.48465,0.12336
687.99486,0.16055
686.50508,0.18272
685.01529,0.20491
683.52550,0.22531
682.03571,0.26092
680.54592,0.26548
679.05613,0.27162
677.56635,0.27779
676.07656,0.24651
674.58677,0.23213
673.09698,0.25174
671.60719,0.22982
670.11740,0.20792
668.62761,0.18183
667.13783,0.15528
665.64804,0.15128
664.15825,0.14732
662.66846,0.13361
661.17867,0.10475
659.68888,0.07206
658.19910,0.05735
656.70931,0.04266
655.21952,0.04426
653.72973,0.04806
652.23994,0.05766
650.75015,0.04741
649.26037,0.03718
647.77058,0.03577
646.28079,0.03632
644.79100,0.03135
643.30121,0.02242
641.81142,0.01352
640.32163,0.03850
638.83185,0.05628
637.34206,0.01481
635.85227,0.01601
634.36248,0.01723
632.87269,0.01222
631.38290,0.01036
629.89312,0.00347
628.40333,0.00845
626.91354,0.01346
625.42375,0.00199
623.93396,0.03159
622.44417,0.03675
620.95438,0.04194
619.46460,0.03233
617.97481,0.05672
616.48502,0.06981
614.99523,0.08631
613.50544,0.10282
612.01565,0.11840
610.52587,0.13593
609.03608,0.17324
607.54629,0.18624
606.05650,0.19927
604.56671,0.26677
603.07692,0.30539
601.58714,0.32042
600.09735,0.33547
598.60756,0.36862
597.11777,0.38300
595.62798,0.42126
594.13819,0.41725
592.64840,0.41327
591.15862,0.37161
589.66883,0.32900
588.17904,0.28064
586.68925,0.23990
585.19946,0.19917
583.70967,0.14968
582.21989,0.08672
580.73010,0.08270
579.24031,0.07870
577.75052,0.05244
576.26073,0.02885
574.77094,0.04192
573.28115,0.04802
571.79137,0.05415
570.30158,0.04970
568.81179,0.07129
567.32200,0.07617
565.83221,0.08107
564.34242,0.11575
562.85264,0.13841
561.36285,0.17098
559.87306,0.15887
558.38327,0.14679
556.89348,0.15027
555.40369,0.16293
553.91391,0.17442
552.42412,0.18593
550.93433,0.18879
549.44454,0.17625
547.95475,0.19723
546.46496,0.20764
544.97517,0.21807
543.48539,0.26008
541.99560,0.28116
540.50581,0.29311
539.01602,0.30509
537.52623,0.33275
536.03644,0.36622
534.54666,0.41103
533.05687,0.42540
531.56708,0.43978
530.07729,0.48371
528.58750,0.53152
527.09771,0.55080
525.60792,0.57011
524.11814,0.64691
522.62835,0.70590
521.13856,0.78347
519.64877,0.80010
518.15898,0.81676
516.66919,0.85513
515.17941,0.89473
513.68962,0.88327
512.19983,0.87184
510.71004,0.84452
509.22025,0.80567
507.73046,0.68226
506.24068,0.64828
504.75089,0.61432
503.26110,0.48810
501.77131,0.37515
500.28152,0.34030
498.79173,0.30548
497.30194,0.22538
495.81216,0.17976
494.32237,0.15621
492.83258,0.13269
491.34279,0.11510
489.85300,0.09223
488.36321,0.08890
486.87343,0.09343
485.38364,0.09798
483.89385,0.07281
482.40406,0.07705
480.91427,0.10975
479.42448,0.14247
477.93469,0.14534
476.44491,0.17523
474.95512,0.18923
473.46533,0.20326
471.97554,0.22960
470.48575,0.22585
468.99596,0.22959
467.50618,0.21505
466.01639,0.20053
464.52660,0.16941
463.03681,0.11470
461.54702,0.10844
460.05723,0.10221
458.56745,0.08131
457.07766,0.05128
455.58787,0.04067
454.09808,0.03008
452.60829,0.01361
451.11850,0.00199
449.62871,0.01013
448.13893,0.01829
446.64914,0.00153
445.15935,0.01516
443.66956,0.04954
442.17977,0.03141
440.68998,0.01331
439.20020,0.03860
437.71041,0.04296
436.22062,0.04565
434.73083,0.04837
433.24104,0.07979
431.75125,0.05943
430.26146,0.04837
428.77168,0.03733
427.28189,0.04813
425.79210,0.06473
424.30231,0.05787
422.81252,0.05103
421.32273,0.05566
419.83295,0.04778
418.34316,0.02933
416.85337,0.01090
415.36358,0.01081
413.87379,0.03532
412.38400,0.02841
410.89422,0.02153
409.40443,0.02949
407.91464,0.03073
406.42485,0.08187
404.93506,0.07184
403.44527,0.06182
401.95548,0.06846
400.46570,0.04260
398.97591,0.03350
397.48612,0.02444
395.99633,0.04370
394.50654,0.03890
393.01675,0.03051
391.52697,0.02214
390.03718,0.02516
388.54739,0.02894
387.05760,0.02502
385.56781,0.02113
384.07802,0.04329
382.58824,0.02499
381.09845,0.03515
379.60866,0.04534
378.11887,0.03651
376.62908,0.03350
375.13929,0.01773
373.64950,0.00199
372.15972,0.03670
370.66993,0.06468
369.18014,0.06498
367.69035,0.06531
366.20056,0.05337
364.71077,0.03688
363.22099,0.03765
361.73120,0.03845
360.24141,0.02217
358.75162,0.04158
357.26183,0.07354
355.77204,0.10552
354.28225,0.09970
352.79247,0.11487
351.30268,0.10392
349.81289,0.09299
348.32310,0.12004
346.83331,0.10278
345.34352,0.08831
343.85374,0.07387
342.36395,0.05258
340.87416,0.07903
339.38437,0.06021
337.89458,0.04141
336.40479,0.03853
334.91501,0.05641
333.42522,0.04937
331.93543,0.04235
330.44564,0.05283
328.95585,0.05563
327.46606,0.05495
325.97627,0.05430
324.48649,0.02512
322.99670,0.02648
321.50691,0.02846
320.01712,0.03047
318.52733,0.04829
317.03754,0.11408
315.54776,0.13508
314.05797,0.15610
312.56818,0.16703
311.07839,0.10690
309.58860,0.09740
308.09881,0.08792
306.60902,0.08401
305.11924,0.03458
303.62945,0.02506
302.13966,0.00199
300.64987,0.02150
299.16008,0.00199
