1778.52000,0.02215
1777.03021,0.02375
1775.54042,0.02438
1774.05063,0.01812
1772.56085,0.01979
1771.07106,0.01828
1769.58127,0.02765
1768.09148,0.03039
1766.60169,0.01387
1765.11190,0.01443
1763.62212,0.01451
1762.13233,0.00993
1760.64254,0.00265
1759.15275,0.03741
1757.66296,0.02252
1756.17317,0.00543
1754.68339,0.01258
1753.19360,0.01111
1751.70381,0.01089
1750.21402,0.01490
1748.72423,0.01449
1747.23444,0.00941
1745.74465,0.01967
1744.25487,0.01143
1742.76508,0.00938
1741.27529,0.01231
1739.78550,0.00265
1738.29571,0.00857
1736.80592,0.02070
1735.31614,0.01333
1733.82635,0.01117
1732.33656,0.00137
1730.84677,0.00766
1729.35698,0.00582
1727.86719,0.01167
1726.37740,0.01210
1724.88762,0.00663
1723.39783,0.00612
1721.90804,0.00366
1720.41825,0.01062
1718.92846,0.00178
1717.43867,0.00265
1715.94889,0.01932
1714.45910,0.00834
1712.96931,0.01270
1711.47952,0.01709
1709.98973,0.00000
1708.49994,0.01481
1707.01016,0.00951
1705.52037,0.00424
1704.03058,0.00553
1702.54079,0.00265
1701.05100,0.00378
1699.56121,0.00790
1698.07142,0.00981
1696.58164,0.00681
1695.09185,0.01422
1693.60206,0.02090
1692.11227,0.01748
1690.62248,0.02075
1689.13269,0.01516
1687.64291,0.01230
1686.15312,0.01738
1684.66333,0.00864
1683.17354,0.02464
1681.68375,0.02164
1680.19396,0.02212
1678.70417,0.01916
1677.21439,0.03007
1675.72460,0.03062
1674.23481,0.02354
1672.74502,0.03007
1671.25523,0.03761
1669.76544,0.04716
1668.27566,0.04709
1666.78587,0.04408
1665.29608,0.04209
1663.80629,0.04580
1662.31650,0.05818
1660.82671,0.04934
1659.33693,0.06598
1657.84714,0.05446
1656.35735,0.05286
1654.86756,0.03992
1653.37777,0.05294
1651.88798,0.05932
1650.39819,0.04027
1648.90841,0.06770
1647.41862,0.05166
1645.92883,0.05270
1644.43904,0.05376
1642.94925,0.05287
1641.45946,0.06313
1639.96968,0.05636
1638.47989,0.06295
1636.99010,0.06092
1635.50031,0.08808
1634.01052,0.06584
1632.52073,0.08340
1631.03094,0.07678
1629.54116,0.08475
1628.05137,0.09869
1626.56158,0.07978
1625.07179,0.05768
1623.58200,0.04772
1622.09221,0.05705
1620.60243,0.07210
1619.11264,0.06023
1617.62285,0.05407
1616.13306,0.06745
1614.64327,0.06702
1613.15348,0.07082
1611.66370,0.08724
1610.17391,0.07108
1608.68412,0.06259
1607.19433,0.07834
1605.70454,0.08745
1604.21475,0.08077
1602.72496,0.07411
1601.23518,0.06303
1599.74539,0.07520
1598.25560,0.06342
1596.76581,0.06576
1595.27602,0.08171
1593.78623,0.07915
1592.29645,0.08601
1590.80666,0.06323
1589.31687,0.05506
1587.82708,0.06298
1586.33729,0.06623
1584.84750,0.07147
1583.35771,0.08663
1581.86793,0.06104
1580.37814,0.06907
1578.88835,0.04798
1577.39856,0.04519
1575.90877,0.06245
1574.41898,0.05650
1572.92920,0.05354
1571.43941,0.04961
1569.94962,0.03756
1568.45983,0.02553
1566.97004,0.02785
1565.48025,0.02576
1563.99047,0.01973
1562.50068,0.02312
1561.01089,0.02579
1559.52110,0.02873
1558.03131,0.02725
1556.54152,0.00973
1555.05173,0.00632
1553.56195,0.01405
1552.07216,0.01662
1550.58237,0.01452
1549.09258,0.00627
1547.60279,0.01188
1546.11300,0.00169
1544.62322,0.00389
1543.13343,0.00265
1541.64364,0.00330
1540.15385,0.00409
1538.66406,0.00490
1537.17427,0.01837
1535.68448,0.01062
1534.19470,0.01203
1532.70491,0.00927
1531.21512,0.00134
1529.72533,0.02201
1528.23554,0.01627
1526.74575,0.00265
1525.25597,0.02111
1523.76618,0.04330
1522.27639,0.02870
1520.78660,0.03809
1519.29681,0.03194
1517.80702,0.04459
1516.31724,0.03082
1514.82745,0.04229
1513.33766,0.04142
1511.84787,0.04058
1510.35808,0.04520
1508.86829,0.04440
1507.37850,0.06044
1505.88872,0.04536
1504.39893,0.05576
1502.90914,0.05111
1501.41935,0.05835
1499.92956,0.06066
1498.43977,0.07116
1496.94999,0.06389
1495.46020,0.07987
1493.97041,0.10156
1492.48062,0.08769
1490.99083,0.10769
1489.50104,0.11389
1488.01125,0.11850
1486.52147,0.12314
1485.03168,0.13657
1483.54189,0.14879
1482.05210,0.16400
1480.56231,0.16170
1479.07252,0.18610
1477.58274,0.20558
1476.09295,0.20434
1474.60316,0.19965
1473.11337,0.21452
1471.62358,0.21977
1470.13379,0.21417
1468.64401,0.21280
1467.15422,0.23591
1465.66443,0.24768
1464.17464,0.25948
1462.68485,0.29008
1461.19506,0.35011
1459.70527,0.36840
1458.21549,0.40698
1456.72570,0.48784
1455.23591,0.51609
1453.74612,0.60664
1452.25633,0.63000
1450.76654,0.65807
1449.27676,0.67011
1447.78697,0.67378
1446.29718,0.66264
1444.80739,0.65127
1443.31760,0.63994
1441.82781,0.58884
1440.33802,0.52640
1438.84824,0.50154
1437.35845,0.48338
1435.86866,0.48230
1434.37887,0.50545
1432.88908,0.52270
1431.39929,0.57481
1429.90951,0.60027
1428.41972,0.67269
1426.92993,0.72019
1425.44014,0.80279
1423.95035,0.83106
1422.46056,0.85935
1420.97078,0.90867
1419.48099,0.94739
1417.99120,0.94511
1416.50141,0.96287
1415.01162,0.90060
1413.52183,0.91470
1412.03204,0.84309
1410.54226,0.75667
1409.05247,0.65743
1407.56268,0.61085
1406.07289,0.56379
1404.58310,0.53220
1403.09331,0.50064
1401.60353,0.44625
1400.11374,0.37458
1398.62395,0.34914
1397.13416,0.29210
1395.64437,0.26128
1394.15458,0.21936
1392.66479,0.18982
1391.17501,0.15709
1389.68522,0.11723
1388.19543,0.09937
1386.70564,0.09254
1385.21585,0.08573
1383.72606,0.04621
1382.23628,0.05094
1380.74649,0.02555
1379.25670,0.02934
1377.76691,0.02426
1376.27712,0.00265
1374.78733,0.01699
1373.29755,0.00344
1371.80776,0.00424
1370.31797,0.00926
1368.82818,0.01543
1367.33839,0.02162
1365.84860,0.01708
1364.35881,0.01133
1362.86903,0.02884
1361.37924,0.05131
1359.88945,0.07553
1358.39966,0.10373
1356.90987,0.12257
1355.42008,0.18319
1353.93030,0.23988
1352.44051,0.27004
1350.95072,0.30021
1349.46093,0.36909
1347.97114,0.45083
1346.48135,0.50097
1344.99156,0.57437
1343.50178,0.63123
1342.01199,0.72296
1340.52220,0.76381
1339.03241,0.81160
1337.54262,0.85991
1336.05283,0.89367
1334.56305,0.92745
1333.07326,0.96965
1331.58347,0.96172
1330.09368,0.94270
1328.60389,0.88020
1327.11410,0.87037
1325.62432,0.88601
1324.13453,0.86362
1322.64474,0.80444
1321.15495,0.77864
1319.66516,0.73927
1318.17537,0.69993
1316.68558,0.63713
1315.19580,0.59735
1313.70601,0.54992
1312.21622,0.53292
1310.72643,0.48579
1309.23664,0.46290
1307.74685,0.43757
1306.25707,0.37865
1304.76728,0.35991
1303.27749,0.34120
1301.78770,0.30485
1300.29791,0.27988
1298.80812,0.24061
1297.31834,0.20284
1295.82855,0.16510
1294.33876,0.13677
1292.84897,0.09142
1291.35918,0.10094
1289.86939,0.09258
1288.37960,0.08424
1286.88982,0.08371
1285.40003,0.08592
1283.91024,0.09557
1282.42045,0.08844
1280.93066,0.08504
1279.44087,0.06536
1277.95109,0.03261
1276.46130,0.03570
1274.97151,0.03314
1273.48172,0.03061
1271.99193,0.03081
1270.50214,0.03895
1269.01235,0.02685
1267.52257,0.03949
1266.03278,0.02447
1264.54299,0.00602
1263.05320,0.01576
1261.56341,0.02577
1260.07362,0.03581
1258.58384,0.02265
1257.09405,0.02532
1255.60426,0.00578
1254.11447,0.01740
1252.62468,0.01940
1251.13489,0.00265
1249.64511,0.02551
1248.15532,0.03505
1246.66553,0.02905
1245.17574,0.02307
1243.68595,0.02033
1242.19616,0.02379
1240.70637,0.02950
1239.21659,0.01942
1237.72680,0.03629
1236.23701,0.03343
1234.74722,0.03503
1233.25743,0.02369
1231.76764,0.01237
1230.27786,0.00762
1228.78807,0.00265
1227.29828,0.00991
1225.80849,0.01867
1224.31870,0.02943
1222.82891,0.03528
1221.33912,0.03720
1219.84934,0.04458
1218.35955,0.05198
1216.86976,0.04754
1215.37997,0.05944
1213.89018,0.05333
1212.40039,0.06725
1210.91061,0.05822
1209.42082,0.05143
1207.93103,0.04554
1206.44124,0.03967
1204.95145,0.05544
1203.46166,0.04554
1201.97188,0.07323
1200.48209,0.05819
1198.99230,0.04589
1197.50251,0.06080
1196.01272,0.04731
1194.52293,0.04522
1193.03314,0.04315
1191.54336,0.04753
1190.05357,0.00993
1188.56378,0.01633
1187.07399,0.00991
1185.58420,0.01489
1184.09441,0.02532
1182.60463,0.02737
1181.11484,0.02945
1179.62505,0.03403
1178.13526,0.03022
1176.64547,0.01458
1175.15568,0.03084
1173.66589,0.00265
1172.17611,0.03876
1170.68632,0.02894
1169.19653,0.01914
1167.70674,0.01530
1166.21695,0.03940
1164.72716,0.02695
1163.23738,0.03331
1161.74759,0.04711
1160.25780,0.06859
1158.76801,0.07440
1157.27822,0.08024
1155.78843,0.11143
1154.29865,0.10237
1152.80886,0.10420
1151.31907,0.10211
1149.82928,0.12302
1148.33949,0.14988
1146.84970,0.14477
1145.35991,0.13969
1143.87013,0.13327
1142.38034,0.14911
1140.89055,0.17461
1139.40076,0.18136
1137.91097,0.18121
1136.42118,0.19690
1134.93140,0.20916
1133.44161,0.22144
1131.95182,0.24289
1130.46203,0.27524
1128.97224,0.27919
1127.48245,0.26167
1125.99266,0.25060
1124.50288,0.23881
1123.01309,0.25089
1121.52330,0.26299
1120.03351,0.26981
1118.54372,0.26529
1117.05393,0.26054
1115.56415,0.27237
1114.07436,0.25729
1112.58457,0.25076
1111.09478,0.24426
1109.60499,0.24185
1108.11520,0.24516
1106.62542,0.25343
1105.13563,0.23701
1103.64584,0.23644
1102.15605,0.22971
1100.66626,0.22436
1099.17647,0.21904
1097.68668,0.22375
1096.19690,0.21465
1094.70711,0.20606
1093.21732,0.20072
1091.72753,0.21096
1090.23774,0.21147
1088.74795,0.21200
1087.25817,0.19069
1085.76838,0.20770
1084.27859,0.20101
1082.78880,0.20720
1081.29901,0.20897
1079.80922,0.20532
1078.31943,0.19206
1076.82965,0.17883
1075.33986,0.18934
1073.85007,0.21149
1072.36028,0.19832
1070.87049,0.23214
1069.38070,0.24497
1067.89092,0.25820
1066.40113,0.27145
1064.91134,0.32636
1063.42155,0.39316
1061.93176,0.49754
1060.44197,0.55673
1058.95219,0.60951
1057.46240,0.65701
1055.97261,0.70453
1054.48282,0.78334
1052.99303,0.84116
1051.50324,0.87603
1050.01345,0.85582
1048.52367,0.89939
1047.03388,0.89837
1045.54409,0.89739
1044.05430,0.84293
1042.56451,0.81048
1041.07472,0.75088
1039.58494,0.66585
1038.09515,0.58900
1036.60536,0.56530
1035.11557,0.54163
1033.62578,0.49450
1032.13599,0.43702
1030.64620,0.38426
1029.15642,0.32387
1027.66663,0.29327
1026.17684,0.26270
1024.68705,0.23697
1023.19726,0.20188
1021.70747,0.17200
1020.21769,0.14536
1018.72790,0.12442
1017.23811,0.12525
1015.74832,0.12611
1014.25853,0.11711
1012.76874,0.08663
1011.27896,0.09992
1009.78917,0.10063
1008.29938,0.05886
1006.80959,0.05479
1005.31980,0.05076
1003.83001,0.01375
1002.34022,0.03262
1000.85044,0.03718
999.36065,0.03534
997.87086,0.03402
996.38107,0.03272
994.89128,0.04726
993.40149,0.05639
991.91171,0.07271
990.42192,0.07967
988.93213,0.10468
987.44234,0.09995
985.95255,0.09524
984.46276,0.09117
982.97297,0.09429
981.48319,0.07298
979.99340,0.06354
978.50361,0.06106
977.01382,0.05859
975.52403,0.03713
974.03424,0.02087
972.54446,0.02169
971.05467,0.00845
969.56488,0.00265
968.07509,0.00391
966.58530,0.00520
965.09551,0.00663
963.60573,0.00191
962.11594,0.02884
960.62615,0.00465
959.13636,0.00939
957.64657,0.01415
956.15678,0.00115
954.66699,0.01037
953.17721,0.02554
951.68742,0.01849
950.19763,0.02530
948.70784,0.03214
947.21805,0.05482
945.72826,0.08099
944.23848,0.07604
942.74869,0.08545
941.25890,0.11786
939.76911,0.11657
938.27932,0.11530
936.78953,0.14185
935.29974,0.16226
933.80996,0.17799
932.32017,0.22068
930.83038,0.22274
929.34059,0.22483
927.85080,0.24931
926.36101,0.27406
924.87123,0.29216
923.38144,0.31127
921.89165,0.34067
920.40186,0.37009
918.91207,0.49083
917.42228,0.61333
915.93250,0.76600
914.44271,0.95156
912.95292,1.06438
911.46313,1.17721
909.97334,1.39917
908.48355,1.59175
906.99376,1.79992
905.50398,1.92286
904.01419,1.94711
902.52440,1.97138
901.03461,2.00000
899.54482,1.96168
898.05503,1.89942
896.56525,1.70102
895.07546,1.54417
893.58567,1.38733
892.09588,1.14132
890.60609,0.85259
889.11630,0.65950
887.62651,0.48671
886.13673,0.41858
884.64694,0.35048
883.15715,0.25659
881.66736,0.17334
880.17757,0.12520
878.68778,0.09970
877.19800,0.07423
875.70821,0.05236
874.21842,0.03669
872.72863,0.01586
871.23884,0.01408
869.74905,0.01158
868.25927,0.00911
866.76948,0.00913
865.27969,0.00423
863.78990,0.02135
862.30011,0.02367
860.81032,0.03541
859.32053,0.04716
857.83075,0.03621
856.34096,0.05148
854.85117,0.05565
853.36138,0.09295
851.87159,0.09408
850.38180,0.09524
848.89202,0.11334
847.40223,0.14556
845.91244,0.13801
844.42265,0.14334
842.93286,0.14869
841.44307,0.16099
839.95329,0.18319
838.46350,0.18170
836.97371,0.18616
835.48392,0.19287
833.99413,0.19961
832.50434,0.20043
831.01455,0.18053
829.52477,0.17622
828.03498,0.13906
826.54519,0.13282
825.05540,0.12661
823.56561,0.12882
822.07582,0.10164
820.58604,0.10662
819.09625,0.10137
817.60646,0.09614
816.11667,0.09624
814.62688,0.09514
813.13709,0.09999
811.64730,0.09424
810.15752,0.09481
808.66773,0.09541
807.17794,0.09171
805.68815,0.10064
804.19836,0.10983
802.70857,0.10917
801.21879,0.10853
799.72900,0.09532
798.23921,0.09769
796.74942,0.09737
795.25963,0.09831
793.76984,0.09928
792.28006,0.09755
790.79027,0.13958
789.30048,0.11517
787.81069,0.13872
786.32090,0.16131
784.83111,0.18392
783.34132,0.21100
781.85154,0.25466
780.36175,0.25041
778.87196,0.27694
777.38217,0.30350
775.89238,0.32972
774.40259,0.34014
772.91281,0.32712
771.42302,0.30720
769.93323,0.28730
768.44344,0.27286
766.95365,0.21546
765.46386,0.19613
763.97407,0.16941
762.48429,0.14296
760.99450,0.11654
759.50471,0.10027
758.01492,0.08453
756.52513,0.06435
755.03534,0.06336
753.54556,0.06238
752.05577,0.04352
750.56598,0.04692
749.07619,0.04491
747.58640,0.04057
746.09661,0.03626
744.60683,0.03729
743.11704,0.02722
741.62725,0.01396
740.13746,0.01556
738.64767,0.01717
737.15788,0.01634
735.66809,0.00343
734.17831,0.00265
732.68852,0.00281
731.19873,0.00298
729.70894,0.01888
728.21915,0.00984
726.72936,0.01763
725.23958,0.00790
723.74979,0.00981
722.26000,0.01175
720.77021,0.01383
719.28042,0.02286
717.79063,0.00597
716.30084,0.00430
714.81106,0.00265
713.32127,0.02577
711.83148,0.03953
710.34169,0.03008
708.85190,0.03203
707.36211,0.03400
705.87233,0.04142
704.38254,0.04394
702.89275,0.05883
701.40296,0.05459
699.91317,0.05038
698.42338,0.06287
696.93360,0.10084
695.44381,0.09287
693.95402,0.10297
692.46423,0.11309
690.97444,0.13657
689.48465,0.17194
687.99486,0.19153
686.50508,0.19062
685.01529,0.18974
683.52550,0.23436
682.03571,0.23698
680.54592,0.25743
679.05613,0.26702
677.56635,0.27665
676.07656,0.29321
674.58677,0.26903
673.09698,0.21744
671.60719,0.20603
670.11740,0.19464
668.62761,0.19477
667.13783,0.15885
665.64804,0.15149
664.15825,0.14415
662.66846,0.11819
661.17867,0.07643
659.68888,0.06287
658.19910,0.05884
656.70931,0.05484
655.21952,0.03715
653.72973,0.04939
652.23994,0.05571
650.75015,0.05650
649.26037,0.05732
647.77058,0.06347
646.28079,0.03926
644.79100,0.04076
643.30121,0.03957
641.81142,0.03841
640.32163,0.01750
638.83185,0.01787
637.34206,0.01851
635.85227,0.01176
634.36248,0.00504
632.87269,0.00265
631.38290,0.02799
629.89312,0.03236
628.40333,0.02525
626.91354,0.01818
625.42375,0.02236
623.93396,0.01867
622.44417,0.02946
620.95438,0.04027
619.46460,0.05197
617.97481,0.05998
616.48502,0.05666
614.99523,0.07559
613.50544,0.09456
612.01565,0.12565
610.52587,0.17432
609.03608,0.19706
607.54629,0.20982
606.05650,0.22260
604.56671,0.27482
603.07692,0.33324
601.58714,0.35166
600.09735,0.37010
598.60756,0.40536
597.11777,0.42632
595.62798,0.40876
594.13819,0.39147
592.64840,0.37420
591.15862,0.34336
589.66883,0.32985
588.17904,0.28102
586.68925,0.24779
585.19946,0.21458
583.70967,0.17250
582.21989,0.13440
580.73010,0.11127
579.24031,0.08817
577.75052,0.06990
576.26073,0.06378
574.77094,0.06261
573.28115,0.05592
571.79137,0.04924
570.30158,0.02814
568.81179,0.04313
567.32200,0.05383
565.83221,0.06455
564.34242,0.08654
562.85264,0.10163
561.36285,0.12268
559.87306,0.13992
558.38327,0.15719
556.89348,0.16274
555.40369,0.15671
553.91391,0.15823
552.42412,0.15978
550.93433,0.16988
549.44454,0.18001
547.95475,0.17903
546.46496,0.18908
544.97517,0.19915
543.48539,0.20542
541.99560,0.22382
540.50581,0.25596
539.01602,0.28812
537.52623,0.30239
536.03644,0.36018
534.54666,0.38389
533.05687,0.40589
531.56708,0.42792
530.07729,0.49099
528.58750,0.57658
527.09771,0.61412
525.60792,0.65169
524.11814,0.72153
522.62835,0.74049
521.13856,0.82867
519.64877,0.84138
518.15898,0.85411
516.66919,0.90381
515.17941,0.90362
513.68962,0.91828
512.19983,0.93297
510.71004,0.85353
509.22025,0.79438
507.73046,0.67570
506.24068,0.64489
504.75089,0.61411
503.26110,0.52293
501.77131,0.41572
500.28152,0.36103
498.79173,0.30638
497.30194,0.25409
495.81216,0.19714
494.32237,0.18691
492.83258,0.17670
491.34279,0.13811
489.85300,0.09805
488.36321,0.06939
486.87343,0.06731
485.38364,0.06526
483.89385,0.07942
482.40406,0.11139
480.91427,0.11374
479.42448,0.11611
477.93469,0.14692
476.44491,0.13624
474.95512,0.15734
473.46533,0.17846
471.97554,0.17280
470.48575,0.18297
468.99596,0.17489
467.50618,0.17535
466.01639,0.17584
464.52660,0.14781
463.03681,0.10152
461.54702,0.08442
460.05723,0.06733
458.56745,0.07449
457.07766,0.04090
455.58787,0.04218
454.09808,0.04348
452.60829,0.05024
451.11850,0.02910
449.62871,0.02133
448.13893,0.01358
446.64914,0.00265
445.15935,0.01373
443.66956,0.02458
442.17977,0.02780
440.68998,0.03105
439.20020,0.03852
437.71041,0.06603
436.22062,0.06119
434.73083,0.05637
433.24104,0.04689
431.75125,0.05300
430.26146,0.06037
428.77168,0.06776
427.28189,0.03786
425.79210,0.03690
424.30231,0.03077
422.81252,0.02467
421.32273,0.03194
419.83295,0.03898
418.34316,0.04136
416.85337,0.04375
415.36358,0.02665
413.87379,0.03948
412.38400,0.02737
410.89422,0.01528
409.40443,0.04325
407.91464,0.05494
406.42485,0.02612
404.93506,0.03761
403.44527,0.04912
401.95548,0.01865
400.46570,0.02576
398.97591,0.02895
397.48612,0.03215
395.99633,0.03736
394.50654,0.01492
393.01675,0.02166
391.52697,0.02442
390.03718,0.02029
388.54739,0.03471
387.05760,0.03853
385.56781,0.04238
384.07802,0.04946
382.58824,0.01901
381.09845,0.01082
379.60866,0.00265
378.11887,0.00835
376.62908,0.01952
375.13929,0.01217
373.64950,0.00485
372.15972,0.03017
370.66993,0.02710
369.18014,0.02701
367.69035,0.02695
366.20056,0.01641
364.71077,0.03950
363.22099,0.03951
361.73120,0.03955
360.24141,0.03899
358.75162,0.02264
357.26183,0.02374
355.77204,0.02486
354.28225,0.00265
352.79247,0.04878
351.30268,0.05985
349.81289,0.07094
348.32310,0.08057
346.83331,0.09567
345.34352,0.07125
343.85374,0.04685
342.36395,0.03311
340.87416,0.01519
339.38437,0.00917
337.89458,0.00318
336.40479,0.00462
334.91501,0.01276
333.42522,0.00857
331.93543,0.00440
330.44564,0.02398
328.95585,0.01542
327.46606,0.02677
325.97627,0.03814
324.48649,0.04250
322.99670,0.02834
321.50691,0.02385
320.01712,0.01939
318.52733,0.04682
317.03754,0.07947
315.54776,0.08570
314.05797,0.09196
312.56818,0.11801
311.07839,0.14853
309.58860,0.14349
308.09881,0.13848
306.60902,0.11322
305.11924,0.07391
303.62945,0.05847
302.13966,0.04305
300.64987,0.02086
299.16008,0.00265
