1778.52000,0.00449
1777.03021,0.00308
1775.54042,0.01052
1774.05063,0.00938
1772.56085,0.01030
1771.07106,0.00989
1769.58127,0.01426
1768.09148,0.00734
1766.60169,0.01063
1765.11190,0.01258
1763.62212,0.00867
1762.13233,0.01452
1760.64254,0.01292
1759.15275,0.01452
1757.66296,0.00641
1756.17317,0.00037
1754.68339,0.00000
1753.19360,0.01346
1751.70381,0.00341
1750.21402,0.01579
1748.72423,0.01303
1747.23444,0.00759
1745.74465,0.01370
1744.25487,0.01147
1742.76508,0.01447
1741.27529,0.01410
1739.78550,0.00900
1738.29571,0.00641
1736.80592,0.02012
1735.31614,0.01688
1733.82635,0.01027
1732.33656,0.00256
1730.84677,0.01207
1729.35698,0.01209
1727.86719,0.00807
1726.37740,0.00928
1724.88762,0.01549
1723.39783,0.00838
1721.90804,0.01328
1720.41825,0.01119
1718.92846,0.00641
1717.43867,0.01289
1715.94889,0.01058
1714.45910,0.02095
1712.96931,0.01959
1711.47952,0.01531
1709.98973,0.01920
1708.49994,0.00524
1707.01016,0.00510
1705.52037,0.00499
1704.03058,0.01003
1702.54079,0.01329
1701.05100,0.00685
1699.56121,0.02282
1698.07142,0.01461
1696.58164,0.02476
1695.09185,0.02949
1693.60206,0.02362
1692.11227,0.02615
1690.62248,0.02191
1689.13269,0.03081
1687.64291,0.03296
1686.15312,0.02110
1684.66333,0.02511
1683.17354,0.04520
1681.68375,0.03771
1680.19396,0.04247
1678.70417,0.04725
1677.21439,0.04866
1675.72460,0.05009
1674.23481,0.05698
1672.74502,0.05485
1671.25523,0.06450
1669.76544,0.06219
1668.27566,0.07551
1666.78587,0.07008
1665.29608,0.07191
1663.80629,0.05884
1662.31650,0.08402
1660.82671,0.08955
1659.33693,0.09306
1657.84714,0.07940
1656.35735,0.07460
1654.86756,0.06642
1653.37777,0.06438
1651.88798,0.06892
1650.39819,0.06896
1648.90841,0.07694
1647.41862,0.07183
1645.92883,0.07794
1644.43904,0.08407
1642.94925,0.08921
1641.45946,0.09393
1639.96968,0.07106
1638.47989,0.07379
1636.99010,0.08038
1635.50031,0.08293
1634.01052,0.08505
1632.52073,0.08267
1631.03094,0.09231
1629.54116,0.09472
1628.05137,0.10803
1626.56158,0.10077
1625.07179,0.08471
1623.58200,0.07727
1622.09221,0.07280
1620.60243,0.06179
1619.11264,0.08701
1617.62285,0.08578
1616.13306,0.10176
1614.64327,0.08927
1613.15348,0.09196
1611.66370,0.10033
1610.17391,0.08972
1608.68412,0.09271
1607.19433,0.09346
1605.70454,0.09378
1604.21475,0.09186
1602.72496,0.08997
1601.23518,0.07770
1599.74539,0.09146
1598.25560,0.07449
1596.76581,0.08242
1595.27602,0.07975
1593.78623,0.09339
1592.29645,0.10547
1590.80666,0.08386
1589.31687,0.06342
1587.82708,0.07240
1586.33729,0.07236
1584.84750,0.08457
1583.35771,0.10222
1581.86793,0.08574
1580.37814,0.06906
1578.88835,0.06937
1577.39856,0.06835
1575.90877,0.06757
1574.41898,0.05868
1572.92920,0.05773
1571.43941,0.05771
1569.94962,0.06111
1568.45983,0.06453
1566.97004,0.05237
1565.48025,0.05335
1563.99047,0.03332
1562.50068,0.01896
1561.01089,0.03043
1559.52110,0.04553
1558.03131,0.04075
1556.54152,0.02763
1555.05173,0.03150
1553.56195,0.01639
1552.07216,0.02302
1550.58237,0.02266
1549.09258,0.01645
1547.60279,0.00641
1546.11300,0.00813
1544.62322,0.02367
1543.13343,0.02045
1541.64364,0.01636
1540.15385,0.02145
1538.66406,0.02657
1537.17427,0.02458
1535.68448,0.01108
1534.19470,0.01616
1532.70491,0.02263
1531.21512,0.01622
1529.72533,0.01052
1528.23554,0.02558
1526.74575,0.01984
1525.25597,0.01640
1523.76618,0.03922
1522.27639,0.03967
1520.78660,0.03200
1519.29681,0.03929
1517.80702,0.04479
1516.31724,0.04873
1514.82745,0.06084
1513.33766,0.05657
1511.84787,0.05233
1510.35808,0.06293
1508.86829,0.06496
1507.37850,0.03783
1505.88872,0.06705
1504.39893,0.04992
1502.90914,0.06132
1501.41935,0.05533
1499.92956,0.07809
1498.43977,0.08368
1496.94999,0.10582
1495.46020,0.09947
1493.97041,0.09495
1492.48062,0.11422
1490.99083,0.11676
1489.50104,0.13246
1488.01125,0.13042
1486.52147,0.12840
1485.03168,0.15028
1483.54189,0.14751
1482.05210,0.17849
1480.56231,0.17555
1479.07252,0.20816
1477.58274,0.23988
1476.09295,0.24064
1474.60316,0.23554
1473.11337,0.25648
1471.62358,0.25233
1470.13379,0.25273
1468.64401,0.26130
1467.15422,0.27600
1465.66443,0.28745
1464.17464,0.29892
1462.68485,0.32614
1461.19506,0.36176
1459.70527,0.42160
1458.21549,0.45139
1456.72570,0.49635
1455.23591,0.55446
1453.74612,0.62843
1452.25633,0.67958
1450.76654,0.70247
1449.27676,0.69869
1447.78697,0.67502
1446.29718,0.68056
1444.80739,0.67437
1443.31760,0.66820
1441.82781,0.61092
1440.33802,0.55321
1438.84824,0.51295
1437.35845,0.51819
1435.86866,0.51779
1434.37887,0.51132
1432.88908,0.55463
1431.39929,0.60499
1429.90951,0.63841
1428.41972,0.69582
1426.92993,0.75078
1425.44014,0.82273
1423.95035,0.84900
1422.46056,0.87530
1420.97078,0.90410
1419.48099,0.93746
1417.99120,0.91949
1416.50141,0.91738
1415.01162,0.88068
1413.52183,0.88608
1412.03204,0.84241
1410.54226,0.76845
1409.05247,0.67416
1407.56268,0.59323
1406.07289,0.53156
1404.58310,0.52569
1403.09331,0.51984
1401.60353,0.46186
1400.11374,0.41138
1398.62395,0.36951
1397.13416,0.33989
1395.64437,0.28450
1394.15458,0.20674
1392.66479,0.20004
1391.17501,0.17821
1389.68522,0.13762
1388.19543,0.09774
1386.70564,0.09386
1385.21585,0.08999
1383.72606,0.07123
1382.23628,0.05950
1380.74649,0.03467
1379.25670,0.03679
1377.76691,0.03192
1376.27712,0.02277
1374.78733,0.00641
1373.29755,0.02607
1371.80776,0.02698
1370.31797,0.02112
1368.82818,0.02615
1367.33839,0.03120
1365.84860,0.03944
1364.35881,0.04069
1362.86903,0.05306
1361.37924,0.05934
1359.88945,0.08872
1358.39966,0.10681
1356.90987,0.15163
1355.42008,0.19918
1353.93030,0.25129
1352.44051,0.28294
1350.95072,0.31462
1349.46093,0.39100
1347.97114,0.47352
1346.48135,0.51126
1344.99156,0.56872
1343.50178,0.63094
1342.01199,0.67940
1340.52220,0.72516
1339.03241,0.77909
1337.54262,0.80296
1336.05283,0.83092
1334.56305,0.85891
1333.07326,0.91067
1331.58347,0.93554
1330.09368,0.91157
1328.60389,0.85798
1327.11410,0.81143
1325.62432,0.80947
1324.13453,0.80731
1322.64474,0.77599
1321.15495,0.72886
1319.66516,0.71784
1318.17537,0.70685
1316.68558,0.62676
1315.19580,0.57248
1313.70601,0.52027
1312.21622,0.50745
1310.72643,0.46026
1309.23664,0.43957
1307.74685,0.38904
1306.25707,0.34736
1304.76728,0.33941
1303.27749,0.33149
1301.78770,0.27178
1300.29791,0.26051
1298.80812,0.23795
1297.31834,0.19348
1295.82855,0.17233
1294.33876,0.12699
1292.84897,0.10159
1291.35918,0.09115
1289.86939,0.08740
1288.37960,0.08368
1286.88982,0.08191
1285.40003,0.07722
1283.91024,0.07550
1282.42045,0.06611
1280.93066,0.05855
1279.44087,0.05622
1277.95109,0.04034
1276.46130,0.04100
1274.97151,0.03580
1273.48172,0.03063
1271.99193,0.03001
1270.50214,0.04230
1269.01235,0.03585
1267.52257,0.03100
1266.03278,0.02663
1264.54299,0.02454
1263.05320,0.02972
1261.56341,0.02293
1260.07362,0.01617
1258.58384,0.02934
1257.09405,0.02014
1255.60426,0.03675
1254.11447,0.01063
1252.62468,0.01734
1251.13489,0.01570
1249.64511,0.03128
1248.15532,0.02675
1246.66553,0.03027
1245.17574,0.03382
1243.68595,0.01873
1242.19616,0.03466
1240.70637,0.01419
1239.21659,0.00641
1237.72680,0.01672
1236.23701,0.03247
1234.74722,0.04079
1233.25743,0.03081
1231.76764,0.02085
1230.27786,0.02426
1228.78807,0.00802
1227.29828,0.01505
1225.80849,0.02167
1224.31870,0.01857
1222.82891,0.02388
1221.33912,0.02739
1219.84934,0.03127
1218.35955,0.03518
1216.86976,0.04918
1215.37997,0.06886
1213.89018,0.07046
1212.40039,0.06485
1210.91061,0.04840
1209.42082,0.04193
1207.93103,0.04861
1206.44124,0.05531
1204.95145,0.04847
1203.46166,0.03508
1201.97188,0.03620
1200.48209,0.04934
1198.99230,0.02517
1197.50251,0.02455
1196.01272,0.04975
1194.52293,0.03708
1193.03314,0.02443
1191.54336,0.03749
1190.05357,0.01437
1188.56378,0.01594
1187.07399,0.01730
1185.58420,0.01055
1184.09441,0.01196
1182.60463,0.00921
1181.11484,0.00649
1179.62505,0.01686
1178.13526,0.03291
1176.64547,0.01799
1175.15568,0.02662
1173.66589,0.02283
1172.17611,0.01251
1170.68632,0.00945
1169.19653,0.00641
1167.70674,0.03438
1166.21695,0.01870
1164.72716,0.02250
1163.23738,0.03674
1161.74759,0.02792
1160.25780,0.04899
1158.76801,0.05901
1157.27822,0.06904
1155.78843,0.08295
1154.29865,0.09348
1152.80886,0.08210
1151.31907,0.09020
1149.82928,0.10918
1148.33949,0.11823
1146.84970,0.12119
1145.35991,0.12418
1143.87013,0.12856
1142.38034,0.12820
1140.89055,0.13421
1139.40076,0.13119
1137.91097,0.17073
1136.42118,0.16685
1134.93140,0.17918
1133.44161,0.19153
1131.95182,0.20628
1130.46203,0.24232
1128.97224,0.25417
1127.48245,0.23913
1125.99266,0.22163
1124.50288,0.22519
1123.01309,0.23329
1121.52330,0.24143
1120.03351,0.22312
1118.54372,0.23198
1117.05393,0.23543
1115.56415,0.25475
1114.07436,0.22658
1112.58457,0.23339
1111.09478,0.24022
1109.60499,0.21530
1108.11520,0.23519
1106.62542,0.21551
1105.13563,0.21735
1103.64584,0.21175
1102.15605,0.20776
1100.66626,0.19836
1099.17647,0.18899
1097.68668,0.19073
1096.19690,0.18887
1094.70711,0.18749
1093.21732,0.16826
1091.72753,0.16489
1090.23774,0.17365
1088.74795,0.18243
1087.25817,0.16353
1085.76838,0.16071
1084.27859,0.17579
1082.78880,0.17687
1081.29901,0.17525
1079.80922,0.16733
1078.31943,0.17583
1076.82965,0.18436
1075.33986,0.19144
1073.85007,0.18362
1072.36028,0.18667
1070.87049,0.19948
1069.38070,0.20870
1067.89092,0.22077
1066.40113,0.23286
1064.91134,0.27970
1063.42155,0.35825
1061.93176,0.44564
1060.44197,0.52762
1058.95219,0.59696
1057.46240,0.63827
1055.97261,0.67961
1054.48282,0.72572
1052.99303,0.79923
1051.50324,0.82820
1050.01345,0.81465
1048.52367,0.83869
1047.03388,0.83979
1045.54409,0.84091
1044.05430,0.80032
1042.56451,0.75839
1041.07472,0.71106
1039.58494,0.63502
1038.09515,0.56217
1036.60536,0.53176
1035.11557,0.50138
1033.62578,0.44852
1032.13599,0.40291
1030.64620,0.33675
1029.15642,0.28780
1027.66663,0.26761
1026.17684,0.24745
1024.68705,0.20943
1023.19726,0.19090
1021.70747,0.17330
1020.21769,0.15051
1018.72790,0.15242
1017.23811,0.14224
1015.74832,0.13209
1014.25853,0.10850
1012.76874,0.09760
1011.27896,0.11908
1009.78917,0.11955
1008.29938,0.09605
1006.80959,0.07937
1005.31980,0.06272
1003.83001,0.03274
1002.34022,0.02925
1000.85044,0.03077
999.36065,0.03005
997.87086,0.02754
996.38107,0.02506
994.89128,0.04274
993.40149,0.06768
991.91171,0.06640
990.42192,0.07329
988.93213,0.07523
987.44234,0.08251
985.95255,0.08982
984.46276,0.11423
982.97297,0.09341
981.48319,0.06109
979.99340,0.02878
978.50361,0.04582
977.01382,0.06289
975.52403,0.03609
974.03424,0.03714
972.54446,0.02148
971.05467,0.00697
969.56488,0.00787
968.07509,0.00811
966.58530,0.00838
965.09551,0.00641
963.60573,0.02458
962.11594,0.01970
960.62615,0.02887
959.13636,0.03591
957.64657,0.04298
956.15678,0.02982
954.66699,0.02823
953.17721,0.06716
951.68742,0.04186
950.19763,0.04927
948.70784,0.05671
947.21805,0.07651
945.72826,0.08366
944.23848,0.10622
942.74869,0.11319
941.25890,0.12969
939.76911,0.13321
938.27932,0.13675
936.78953,0.15106
935.29974,0.17580
933.80996,0.19649
932.32017,0.24346
930.83038,0.23977
929.34059,0.23610
927.85080,0.27657
926.36101,0.30214
924.87123,0.31801
923.38144,0.33389
921.89165,0.35524
920.40186,0.37660
918.91207,0.49482
917.42228,0.60628
915.93250,0.77433
914.44271,0.95054
912.95292,1.04805
911.46313,1.14558
909.97334,1.41010
908.48355,1.63301
906.99376,1.82383
905.50398,1.89453
904.01419,1.91956
902.52440,1.94462
901.03461,1.98576
899.54482,2.00000
898.05503,1.91947
896.56525,1.73400
895.07546,1.59413
893.58567,1.45429
892.09588,1.18359
890.60609,0.91880
889.11630,0.69001
887.62651,0.53590
886.13673,0.45568
884.64694,0.37548
883.15715,0.27755
881.66736,0.21223
880.17757,0.13539
878.68778,0.11491
877.19800,0.09445
875.70821,0.07334
874.21842,0.04592
872.72863,0.03141
871.23884,0.01829
869.74905,0.01629
868.25927,0.01430
866.76948,0.02569
865.27969,0.02172
863.78990,0.04107
862.30011,0.03850
860.81032,0.04807
859.32053,0.05765
857.83075,0.06806
856.34096,0.07486
854.85117,0.08803
853.36138,0.09760
851.87159,0.11229
850.38180,0.12700
848.89202,0.12284
847.40223,0.13116
845.91244,0.15171
844.42265,0.15747
842.93286,0.16325
841.44307,0.18908
839.95329,0.19661
838.46350,0.22294
836.97371,0.23369
835.48392,0.23360
833.99413,0.23353
832.50434,0.22173
831.01455,0.21651
829.52477,0.20701
828.03498,0.16542
826.54519,0.15982
825.05540,0.15424
823.56561,0.13489
822.07582,0.11806
820.58604,0.10260
819.09625,0.10968
817.60646,0.11678
816.11667,0.10570
814.62688,0.11342
813.13709,0.09492
811.64730,0.10721
810.15752,0.11048
808.66773,0.11377
807.17794,0.10690
805.68815,0.10300
804.19836,0.10003
802.70857,0.10455
801.21879,0.10910
799.72900,0.11276
798.23921,0.11623
796.74942,0.11723
795.25963,0.11474
793.76984,0.11228
792.28006,0.11403
790.79027,0.10879
789.30048,0.12960
787.81069,0.14522
786.32090,0.17218
784.83111,0.19917
783.34132,0.24111
781.85154,0.25593
780.36175,0.28231
778.87196,0.28383
777.38217,0.28537
775.89238,0.33513
774.40259,0.33627
772.91281,0.32770
771.42302,0.31486
769.93323,0.30205
768.44344,0.27998
766.95365,0.23961
765.46386,0.20448
763.97407,0.18045
762.48429,0.16300
760.99450,0.14558
759.50471,0.12525
758.01492,0.08707
756.52513,0.07424
755.03534,0.07084
753.54556,0.06745
752.05577,0.05131
750.56598,0.06348
749.07619,0.05010
747.58640,0.05281
746.09661,0.05555
744.60683,0.03907
743.11704,0.03552
741.62725,0.02091
740.13746,0.01809
738.64767,0.01529
737.15788,0.01365
735.66809,0.01112
734.17831,0.01858
732.68852,0.01248
731.19873,0.00641
729.70894,0.00658
728.21915,0.01492
726.72936,0.02125
725.23958,0.01538
723.74979,0.02221
722.26000,0.02906
720.77021,0.02395
719.28042,0.02519
717.79063,0.00791
716.30084,0.00716
714.81106,0.00641
713.32127,0.01001
711.83148,0.01997
710.34169,0.03560
708.85190,0.03373
707.36211,0.03188
705.87233,0.05348
704.38254,0.05631
702.89275,0.05759
701.40296,0.05720
699.91317,0.05683
698.42338,0.08081
696.93360,0.09350
695.44381,0.10463
693.95402,0.10526
692.46423,0.10592
690.97444,0.13342
689.48465,0.16455
687.99486,0.17581
686.50508,0.18448
685.01529,0.19318
683.52550,0.22261
682.03571,0.23645
680.54592,0.23515
679.05613,0.24010
677.56635,0.24508
676.07656,0.26422
674.58677,0.27275
673.09698,0.23877
671.60719,0.21783
670.11740,0.19691
668.62761,0.18314
667.13783,0.16284
665.64804,0.15489
664.15825,0.14696
662.66846,0.11610
661.17867,0.08842
659.68888,0.08136
658.19910,0.07342
656.70931,0.06550
655.21952,0.06100
653.72973,0.04816
652.23994,0.05864
650.75015,0.05874
649.26037,0.05886
647.77058,0.06241
646.28079,0.04833
644.79100,0.03246
643.30121,0.03472
641.81142,0.03700
640.32163,0.03863
638.83185,0.03553
637.34206,0.03381
635.85227,0.02624
634.36248,0.01869
632.87269,0.00641
631.38290,0.04306
629.89312,0.02702
628.40333,0.02605
626.91354,0.02510
625.42375,0.02361
623.93396,0.02237
622.44417,0.02795
620.95438,0.03354
619.46460,0.05116
617.97481,0.06450
616.48502,0.06542
614.99523,0.07609
613.50544,0.08679
612.01565,0.12443
610.52587,0.13857
609.03608,0.16360
607.54629,0.18333
606.05650,0.20308
604.56671,0.27569
603.07692,0.30715
601.58714,0.31962
600.09735,0.33213
598.60756,0.37949
597.11777,0.40471
595.62798,0.36932
594.13819,0.35828
592.64840,0.34726
591.15862,0.31828
589.66883,0.29679
588.17904,0.22669
586.68925,0.22108
585.19946,0.21550
583.70967,0.16900
582.21989,0.12659
580.73010,0.10174
579.24031,0.07691
577.75052,0.05630
576.26073,0.03616
574.77094,0.05835
573.28115,0.04596
571.79137,0.03358
570.30158,0.05178
568.81179,0.05913
567.32200,0.06471
565.83221,0.07031
564.34242,0.09063
562.85264,0.08700
561.36285,0.11711
559.87306,0.11296
558.38327,0.10884
556.89348,0.12703
555.40369,0.13167
553.91391,0.13011
552.42412,0.12857
550.93433,0.16066
549.44454,0.16743
547.95475,0.15477
546.46496,0.17505
544.97517,0.19536
543.48539,0.21105
541.99560,0.22948
540.50581,0.24025
539.01602,0.25104
537.52623,0.27678
536.03644,0.30821
534.54666,0.36500
533.05687,0.38233
531.56708,0.39969
530.07729,0.44230
528.58750,0.51389
527.09771,0.53370
525.60792,0.55353
524.11814,0.61230
522.62835,0.67313
521.13856,0.71747
519.64877,0.73944
518.15898,0.76143
516.66919,0.80087
515.17941,0.81951
513.68962,0.83343
512.19983,0.84738
510.71004,0.77107
509.22025,0.71833
507.73046,0.62216
506.24068,0.56901
504.75089,0.51589
503.26110,0.45011
501.77131,0.38414
500.28152,0.33369
498.79173,0.28326
497.30194,0.19044
495.81216,0.17660
494.32237,0.16176
492.83258,0.14695
491.34279,0.10807
489.85300,0.10134
488.36321,0.07179
486.87343,0.06861
485.38364,0.06546
483.89385,0.06223
482.40406,0.07666
480.91427,0.09236
479.42448,0.10809
477.93469,0.12282
476.44491,0.13102
474.95512,0.13675
473.46533,0.14250
471.97554,0.16593
470.48575,0.16110
468.99596,0.15404
467.50618,0.15435
466.01639,0.15468
464.52660,0.12688
463.03681,0.09005
461.54702,0.08435
460.05723,0.07867
458.56745,0.05730
457.07766,0.04047
455.58787,0.04211
454.09808,0.04377
452.60829,0.03607
451.11850,0.04717
449.62871,0.04167
448.13893,0.03619
446.64914,0.00641
445.15935,0.01194
443.66956,0.02111
442.17977,0.03246
440.68998,0.04382
439.20020,0.02547
437.71041,0.03768
436.22062,0.04109
434.73083,0.04452
433.24104,0.04142
431.75125,0.07183
430.26146,0.07342
428.77168,0.07503
427.28189,0.05641
425.79210,0.03805
424.30231,0.03125
422.81252,0.02447
421.32273,0.03130
419.83295,0.04946
418.34316,0.03653
416.85337,0.02363
415.36358,0.03395
413.87379,0.02551
412.38400,0.03282
410.89422,0.04015
409.40443,0.05170
407.91464,0.03838
406.42485,0.01287
404.93506,0.01781
403.44527,0.02278
401.95548,0.01725
400.46570,0.01785
398.97591,0.01430
397.48612,0.01076
395.99633,0.03542
394.50654,0.00965
393.01675,0.01592
391.52697,0.01840
390.03718,0.03482
388.54739,0.01936
387.05760,0.02101
385.56781,0.02268
384.07802,0.03558
382.58824,0.02882
381.09845,0.02683
379.60866,0.02487
378.11887,0.00641
376.62908,0.00866
375.13929,0.01274
373.64950,0.01685
372.15972,0.02664
370.66993,0.05025
369.18014,0.04516
367.69035,0.04009
366.20056,0.01694
364.71077,0.03953
363.22099,0.04969
361.73120,0.05988
360.24141,0.04317
358.75162,0.04504
357.26183,0.03765
355.77204,0.03029
354.28225,0.02952
352.79247,0.02153
351.30268,0.04128
349.81289,0.06105
348.32310,0.08029
346.83331,0.11538
345.34352,0.10321
343.85374,0.09107
342.36395,0.07692
340.87416,0.04876
339.38437,0.02900
337.89458,0.00927
336.40479,0.02995
334.91501,0.01694
333.42522,0.01572
331.93543,0.01453
330.44564,0.01946
328.95585,0.01922
327.46606,0.03473
325.97627,0.05027
324.48649,0.08652
322.99670,0.05697
321.50691,0.04475
320.01712,0.03255
318.52733,0.01710
317.03754,0.04511
315.54776,0.05221
314.05797,0.05934
312.56818,0.10847
311.07839,0.09902
309.58860,0.10769
308.09881,0.11639
306.60902,0.10747
305.11924,0.06554
303.62945,0.05339
302.13966,0.04125
300.64987,0.00641
299.16008,0.00641
