1778.52000,0.00603
1777.03021,0.00074
1775.54042,0.00129
1774.05063,0.00000
1772.56085,0.00408
1771.07106,0.00982
1769.58127,0.01512
1768.09148,0.00230
1766.60169,0.00671
1765.11190,0.01092
1763.62212,0.00934
1762.13233,0.01615
1760.64254,0.00764
1759.15275,0.00986
1757.66296,0.01953
1756.17317,0.01110
1754.68339,0.00478
1753.19360,0.01384
1751.70381,0.00641
1750.21402,0.01439
1748.72423,0.01426
1747.23444,0.01765
1745.74465,0.01920
1744.25487,0.01426
1742.76508,0.02260
1741.27529,0.01190
1739.78550,0.01494
1738.29571,0.01197
1736.80592,0.02256
1735.31614,0.02109
1733.82635,0.02476
1732.33656,0.01868
1730.84677,0.01217
1729.35698,0.01336
1727.86719,0.01015
1726.37740,0.01371
1724.88762,0.02078
1723.39783,0.00764
1721.90804,0.01167
1720.41825,0.01572
1718.92846,0.01399
1717.43867,0.02018
1715.94889,0.01199
1714.45910,0.02358
1712.96931,0.02450
1711.47952,0.02126
1709.98973,0.00781
1708.49994,0.00764
1707.01016,0.00898
1705.52037,0.01034
1704.03058,0.01277
1702.54079,0.02661
1701.05100,0.02560
1699.56121,0.02950
1698.07142,0.02017
1696.58164,0.02040
1695.09185,0.02763
1693.60206,0.02465
1692.11227,0.03286
1690.62248,0.03248
1689.13269,0.04004
1687.64291,0.04367
1686.15312,0.03710
1684.66333,0.04426
1683.17354,0.04216
1681.68375,0.04961
1680.19396,0.04731
1678.70417,0.04481
1677.21439,0.05489
1675.72460,0.05849
1674.23481,0.05769
1672.74502,0.05203
1671.25523,0.06268
1669.76544,0.06986
1668.27566,0.07893
1666.78587,0.06802
1665.29608,0.08806
1663.80629,0.07023
1662.31650,0.08939
1660.82671,0.09951
1659.33693,0.08943
1657.84714,0.09913
1656.35735,0.09747
1654.86756,0.09699
1653.37777,0.08026
1651.88798,0.08076
1650.39819,0.09384
1648.90841,0.09090
1647.41862,0.08892
1645.92883,0.08417
1644.43904,0.07945
1642.94925,0.09382
1641.45946,0.10100
1639.96968,0.08821
1638.47989,0.09917
1636.99010,0.08806
1635.50031,0.09301
1634.01052,0.08684
1632.52073,0.09626
1631.03094,0.09966
1629.54116,0.10239
1628.05137,0.10771
1626.56158,0.09607
1625.07179,0.06679
1623.58200,0.07241
1622.09221,0.10084
1620.60243,0.11023
1619.11264,0.11150
1617.62285,0.10118
1616.13306,0.09390
1614.64327,0.09595
1613.15348,0.09337
1611.66370,0.10895
1610.17391,0.10549
1608.68412,0.10345
1607.19433,0.10771
1605.70454,0.10200
1604.21475,0.09492
1602.72496,0.08786
1601.23518,0.08688
1599.74539,0.09057
1598.25560,0.11009
1596.76581,0.10546
1595.27602,0.09411
1593.78623,0.10650
1592.29645,0.09240
1590.80666,0.07275
1589.31687,0.07685
1587.82708,0.09213
1586.33729,0.08488
1584.84750,0.10044
1583.35771,0.10184
1581.86793,0.08118
1580.37814,0.06891
1578.88835,0.06829
1577.39856,0.06398
1575.90877,0.06736
1574.41898,0.05170
1572.92920,0.05956
1571.43941,0.05674
1569.94962,0.06010
1568.45983,0.06350
1566.97004,0.05564
1565.48025,0.03687
1563.99047,0.03417
1562.50068,0.04150
1561.01089,0.04885
1559.52110,0.03786
1558.03131,0.03642
1556.54152,0.03036
1555.05173,0.03828
1553.56195,0.01460
1552.07216,0.02768
1550.58237,0.03962
1549.09258,0.01671
1547.60279,0.01521
1546.11300,0.01211
1544.62322,0.00764
1543.13343,0.01628
1541.64364,0.01354
1540.15385,0.01816
1538.66406,0.02279
1537.17427,0.01478
1535.68448,0.01470
1534.19470,0.01186
1532.70491,0.00764
1531.21512,0.01830
1529.72533,0.01713
1528.23554,0.02527
1526.74575,0.03740
1525.25597,0.04397
1523.76618,0.04289
1522.27639,0.03812
1520.78660,0.03035
1519.29681,0.03493
1517.80702,0.04162
1516.31724,0.05415
1514.82745,0.04485
1513.33766,0.05290
1511.84787,0.06097
1510.35808,0.05500
1508.86829,0.06533
1507.37850,0.05452
1505.88872,0.04607
1504.39893,0.04112
1502.90914,0.04830
1501.41935,0.06061
1499.92956,0.06783
1498.43977,0.06578
1496.94999,0.08095
1495.46020,0.10197
1493.97041,0.10929
1492.48062,0.10082
1490.99083,0.12540
1489.50104,0.13373
1488.01125,0.14405
1486.52147,0.15440
1485.03168,0.15280
1483.54189,0.18262
1482.05210,0.19362
1480.56231,0.22418
1479.07252,0.22896
1477.58274,0.24446
1476.09295,0.24789
1474.60316,0.25111
1473.11337,0.29807
1471.62358,0.27623
1470.13379,0.27581
1468.64401,0.30424
1467.15422,0.32340
1465.66443,0.33421
1464.17464,0.34505
1462.68485,0.39660
1461.19506,0.41377
1459.70527,0.44351
1458.21549,0.50630
1456.72570,0.55400
1455.23591,0.60939
1453.74612,0.65714
1452.25633,0.70631
1450.76654,0.72132
1449.27676,0.75402
1447.78697,0.72095
1446.29718,0.70209
1444.80739,0.68104
1443.31760,0.66001
1441.82781,0.59681
1440.33802,0.56875
1438.84824,0.52698
1437.35845,0.53106
1435.86866,0.50027
1434.37887,0.49160
1432.88908,0.53830
1431.39929,0.56270
1429.90951,0.60108
1428.41972,0.67505
1426.92993,0.75649
1425.44014,0.85005
1423.95035,0.86481
1422.46056,0.87959
1420.97078,0.92276
1419.48099,0.92946
1417.99120,0.93524
1416.50141,0.90594
1415.01162,0.86248
1413.52183,0.82905
1412.03204,0.76238
1410.54226,0.72202
1409.05247,0.65331
1407.56268,0.58045
1406.07289,0.53690
1404.58310,0.51013
1403.09331,0.48337
1401.60353,0.42735
1400.11374,0.37948
1398.62395,0.34815
1397.13416,0.31220
1395.64437,0.24697
1394.15458,0.21943
1392.66479,0.20331
1391.17501,0.18001
1389.68522,0.13628
1388.19543,0.09814
1386.70564,0.08317
1385.21585,0.06822
1383.72606,0.06248
1382.23628,0.03747
1380.74649,0.02016
1379.25670,0.02565
1377.76691,0.01629
1376.27712,0.00719
1374.78733,0.00764
1373.29755,0.01089
1371.80776,0.01835
1370.31797,0.03141
1368.82818,0.02543
1367.33839,0.01947
1365.84860,0.02121
1364.35881,0.04600
1362.86903,0.03151
1361.37924,0.05356
1359.88945,0.08051
1358.39966,0.10656
1356.90987,0.15332
1355.42008,0.18779
1353.93030,0.24879
1352.44051,0.27215
1350.95072,0.29553
1349.46093,0.38474
1347.97114,0.42630
1346.48135,0.51300
1344.99156,0.57369
1343.50178,0.63788
1342.01199,0.68443
1340.52220,0.73984
1339.03241,0.78760
1337.54262,0.85445
1336.05283,0.87738
1334.56305,0.90033
1333.07326,0.94424
1331.58347,0.94515
1330.09368,0.90191
1328.60389,0.85962
1327.11410,0.86758
1325.62432,0.84488
1324.13453,0.83173
1322.64474,0.79861
1321.15495,0.73691
1319.66516,0.71338
1318.17537,0.68986
1316.68558,0.63080
1315.19580,0.62454
1313.70601,0.56553
1312.21622,0.52211
1310.72643,0.49966
1309.23664,0.46559
1307.74685,0.45551
1306.25707,0.40522
1304.76728,0.37402
1303.27749,0.34285
1301.78770,0.31449
1300.29791,0.28895
1298.80812,0.23762
1297.31834,0.20515
1295.82855,0.16992
1294.33876,0.13587
1292.84897,0.11324
1291.35918,0.11900
1289.86939,0.10677
1288.37960,0.09456
1286.88982,0.09342
1285.40003,0.08882
1283.91024,0.09634
1282.42045,0.08388
1280.93066,0.08168
1279.44087,0.04415
1277.95109,0.04619
1276.46130,0.03941
1274.97151,0.03556
1273.48172,0.03174
1271.99193,0.02433
1270.50214,0.01765
1269.01235,0.01588
1267.52257,0.03111
1266.03278,0.02520
1264.54299,0.01164
1263.05320,0.01601
1261.56341,0.01506
1260.07362,0.01413
1258.58384,0.02113
1257.09405,0.00909
1255.60426,0.00778
1254.11447,0.00764
1252.62468,0.01833
1251.13489,0.02322
1249.64511,0.02605
1248.15532,0.02704
1246.66553,0.01934
1245.17574,0.01166
1243.68595,0.01482
1242.19616,0.01545
1240.70637,0.01424
1239.21659,0.00840
1237.72680,0.01701
1236.23701,0.02215
1234.74722,0.00965
1233.25743,0.01054
1231.76764,0.01145
1230.27786,0.00739
1228.78807,0.00764
1227.29828,0.01805
1225.80849,0.01500
1224.31870,0.02383
1222.82891,0.02384
1221.33912,0.02761
1219.84934,0.03686
1218.35955,0.04613
1216.86976,0.04276
1215.37997,0.05476
1213.89018,0.06585
1212.40039,0.07511
1210.91061,0.08440
1209.42082,0.07138
1207.93103,0.07176
1206.44124,0.07217
1204.95145,0.07155
1203.46166,0.06910
1201.97188,0.05295
1200.48209,0.06682
1198.99230,0.06514
1197.50251,0.06581
1196.01272,0.06557
1194.52293,0.05687
1193.03314,0.04820
1191.54336,0.03967
1190.05357,0.03581
1188.56378,0.01616
1187.07399,0.02654
1185.58420,0.02624
1184.09441,0.03597
1182.60463,0.03409
1181.11484,0.03224
1179.62505,0.04762
1178.13526,0.02861
1176.64547,0.03195
1175.15568,0.00764
1173.66589,0.02271
1172.17611,0.01687
1170.68632,0.02199
1169.19653,0.02713
1167.70674,0.03648
1166.21695,0.04353
1164.72716,0.04177
1163.23738,0.03166
1161.74759,0.04994
1160.25780,0.08476
1158.76801,0.07903
1157.27822,0.07332
1155.78843,0.10705
1154.29865,0.08825
1152.80886,0.09646
1151.31907,0.09980
1149.82928,0.13293
1148.33949,0.13353
1146.84970,0.12695
1145.35991,0.12039
1143.87013,0.12642
1142.38034,0.12596
1140.89055,0.15319
1139.40076,0.16603
1137.91097,0.19285
1136.42118,0.19365
1134.93140,0.20168
1133.44161,0.20973
1131.95182,0.23060
1130.46203,0.25592
1128.97224,0.25358
1127.48245,0.25337
1125.99266,0.21039
1124.50288,0.23464
1123.01309,0.24113
1121.52330,0.24764
1120.03351,0.27498
1118.54372,0.25073
1117.05393,0.24255
1115.56415,0.22951
1114.07436,0.21952
1112.58457,0.21548
1111.09478,0.21146
1109.60499,0.21759
1108.11520,0.24420
1106.62542,0.23061
1105.13563,0.22914
1103.64584,0.21560
1102.15605,0.21115
1100.66626,0.20289
1099.17647,0.19465
1097.68668,0.21004
1096.19690,0.20198
1094.70711,0.19626
1093.21732,0.18405
1091.72753,0.19745
1090.23774,0.19738
1088.74795,0.19734
1087.25817,0.18337
1085.76838,0.17896
1084.27859,0.19365
1082.78880,0.20626
1081.29901,0.21332
1079.80922,0.20831
1078.31943,0.19658
1076.82965,0.18488
1075.33986,0.23296
1073.85007,0.20596
1072.36028,0.24131
1070.87049,0.25458
1069.38070,0.28625
1067.89092,0.30400
1066.40113,0.32176
1064.91134,0.37211
1063.42155,0.44899
1061.93176,0.53450
1060.44197,0.62724
1058.95219,0.68489
1057.46240,0.74431
1055.97261,0.80376
1054.48282,0.87660
1052.99303,0.96900
1051.50324,0.98352
1050.01345,0.96273
1048.52367,0.95917
1047.03388,0.94854
1045.54409,0.93794
1044.05430,0.89608
1042.56451,0.83751
1041.07472,0.76781
1039.58494,0.67487
1038.09515,0.60800
1036.60536,0.56558
1035.11557,0.52317
1033.62578,0.46196
1032.13599,0.40751
1030.64620,0.34961
1029.15642,0.27242
1027.66663,0.26735
1026.17684,0.26229
1024.68705,0.19216
1023.19726,0.16763
1021.70747,0.15474
1020.21769,0.14979
1018.72790,0.15346
1017.23811,0.13612
1015.74832,0.11880
1014.25853,0.13906
1012.76874,0.12051
1011.27896,0.12082
1009.78917,0.08232
1008.29938,0.06873
1006.80959,0.05958
1005.31980,0.05046
1003.83001,0.03717
1002.34022,0.03182
1000.85044,0.03137
999.36065,0.03443
997.87086,0.03741
996.38107,0.04040
994.89128,0.05238
993.40149,0.07787
991.91171,0.09314
990.42192,0.09450
988.93213,0.13285
987.44234,0.12774
985.95255,0.12265
984.46276,0.12131
982.97297,0.11767
981.48319,0.10522
979.99340,0.08071
978.50361,0.07319
977.01382,0.06569
975.52403,0.04892
974.03424,0.04310
972.54446,0.02871
971.05467,0.01992
969.56488,0.01045
968.07509,0.00904
966.58530,0.00764
965.09551,0.00922
963.60573,0.01919
962.11594,0.02616
960.62615,0.01083
959.13636,0.00855
957.64657,0.00629
956.15678,0.00755
954.66699,0.01209
953.17721,0.02339
951.68742,0.02565
950.19763,0.04712
948.70784,0.06861
947.21805,0.05955
945.72826,0.07586
944.23848,0.08545
942.74869,0.09646
941.25890,0.10796
939.76911,0.12065
938.27932,0.13337
936.78953,0.15052
935.29974,0.17840
933.80996,0.20979
932.32017,0.21655
930.83038,0.22079
929.34059,0.22504
927.85080,0.25165
926.36101,0.26944
924.87123,0.30214
923.38144,0.32928
921.89165,0.37284
920.40186,0.41643
918.91207,0.51340
917.42228,0.64296
915.93250,0.81578
914.44271,0.98096
912.95292,1.09931
911.46313,1.21768
909.97334,1.43479
908.48355,1.66726
906.99376,1.79559
905.50398,1.89488
904.01419,1.91897
902.52440,1.94309
901.03461,1.99432
899.54482,2.00000
898.05503,1.88130
896.56525,1.66241
895.07546,1.51273
893.58567,1.36306
892.09588,1.11983
890.60609,0.89220
889.11630,0.66274
887.62651,0.49353
886.13673,0.43118
884.64694,0.36886
883.15715,0.28622
881.66736,0.20779
880.17757,0.13846
878.68778,0.12390
877.19800,0.10937
875.70821,0.07452
874.21842,0.05597
872.72863,0.04419
871.23884,0.04918
869.74905,0.05023
868.25927,0.05132
866.76948,0.03452
865.27969,0.06146
863.78990,0.06750
862.30011,0.07217
860.81032,0.07407
859.32053,0.07600
857.83075,0.09283
856.34096,0.12387
854.85117,0.14378
853.36138,0.15882
851.87159,0.15390
850.38180,0.14900
848.89202,0.16900
847.40223,0.20786
845.91244,0.24210
844.42265,0.24044
842.93286,0.23880
841.44307,0.25939
839.95329,0.27652
838.46350,0.27554
836.97371,0.29992
835.48392,0.30410
833.99413,0.30831
832.50434,0.32393
831.01455,0.28819
829.52477,0.26387
828.03498,0.20609
826.54519,0.19810
825.05540,0.19013
823.56561,0.20055
822.07582,0.17542
820.58604,0.18102
819.09625,0.17198
817.60646,0.16297
816.11667,0.16422
814.62688,0.15107
813.13709,0.15492
811.64730,0.14136
810.15752,0.14980
808.66773,0.15826
807.17794,0.15035
805.68815,0.13875
804.19836,0.16438
802.70857,0.17375
801.21879,0.18315
799.72900,0.17909
798.23921,0.16528
796.74942,0.15080
795.25963,0.15193
793.76984,0.15308
792.28006,0.15495
790.79027,0.15685
789.30048,0.20039
787.81069,0.23420
786.32090,0.24756
784.83111,0.26095
783.34132,0.29948
781.85154,0.31826
780.36175,0.37614
778.87196,0.38288
777.38217,0.38965
775.89238,0.44249
774.40259,0.44628
772.91281,0.44476
771.42302,0.43198
769.93323,0.41922
768.44344,0.36963
766.95365,0.30077
765.46386,0.27774
763.97407,0.24056
762.48429,0.21130
760.99450,0.18206
759.50471,0.15379
758.01492,0.13809
756.52513,0.13148
755.03534,0.12293
753.54556,0.11439
752.05577,0.08508
750.56598,0.08741
749.07619,0.05628
747.58640,0.05668
746.09661,0.05711
744.60683,0.04163
743.11704,0.03269
741.62725,0.02749
740.13746,0.01756
738.64767,0.00764
737.15788,0.00738
735.66809,0.00786
734.17831,0.01068
732.68852,0.01005
731.19873,0.00944
729.70894,0.01559
728.21915,0.02689
726.72936,0.00891
725.23958,0.01614
723.74979,0.01222
722.26000,0.00834
720.77021,0.01378
719.28042,0.01296
717.79063,0.00682
716.30084,0.01009
714.81106,0.01338
713.32127,0.02239
711.83148,0.01979
710.34169,0.02909
708.85190,0.02480
707.36211,0.02054
705.87233,0.02991
704.38254,0.03604
702.89275,0.04592
701.40296,0.05211
699.91317,0.05832
698.42338,0.05455
696.93360,0.07593
695.44381,0.09918
693.95402,0.10293
692.46423,0.10671
690.97444,0.12702
689.48465,0.12479
687.99486,0.14399
686.50508,0.16042
685.01529,0.17687
683.52550,0.22521
682.03571,0.21288
680.54592,0.22964
679.05613,0.23875
677.56635,0.24789
676.07656,0.27379
674.58677,0.22787
673.09698,0.19034
671.60719,0.19051
670.11740,0.19070
668.62761,0.18022
667.13783,0.17046
665.64804,0.15794
664.15825,0.14544
662.66846,0.11925
661.17867,0.08564
659.68888,0.05926
658.19910,0.04430
656.70931,0.02937
655.21952,0.04190
653.72973,0.03585
652.23994,0.04866
650.75015,0.05429
649.26037,0.05994
647.77058,0.04120
646.28079,0.04295
644.79100,0.03402
643.30121,0.03280
641.81142,0.03160
640.32163,0.02112
638.83185,0.02555
637.34206,0.01535
635.85227,0.01355
634.36248,0.01178
632.87269,0.01351
631.38290,0.01503
629.89312,0.01983
628.40333,0.02094
626.91354,0.02207
625.42375,0.00764
623.93396,0.01262
622.44417,0.02482
620.95438,0.03705
619.46460,0.04163
617.97481,0.04414
616.48502,0.06598
614.99523,0.07842
613.50544,0.09089
612.01565,0.12326
610.52587,0.18822
609.03608,0.21041
607.54629,0.22693
606.05650,0.24347
604.56671,0.28736
603.07692,0.32082
601.58714,0.34848
600.09735,0.37617
598.60756,0.40132
597.11777,0.43324
595.62798,0.41659
594.13819,0.40683
592.64840,0.39709
591.15862,0.35540
589.66883,0.32071
588.17904,0.28186
586.68925,0.25710
585.19946,0.23237
583.70967,0.20243
582.21989,0.13089
580.73010,0.12065
579.24031,0.11043
577.75052,0.07687
576.26073,0.07891
574.77094,0.05214
573.28115,0.05470
571.79137,0.05727
570.30158,0.05383
568.81179,0.07901
567.32200,0.09248
565.83221,0.10597
564.34242,0.13122
562.85264,0.16139
561.36285,0.19251
559.87306,0.20377
558.38327,0.21506
556.89348,0.22555
555.40369,0.19934
553.91391,0.19756
552.42412,0.19581
550.93433,0.23617
549.44454,0.24632
547.95475,0.24139
546.46496,0.24346
544.97517,0.24555
543.48539,0.25906
541.99560,0.30910
540.50581,0.33208
539.01602,0.35508
537.52623,0.36543
536.03644,0.40534
534.54666,0.43202
533.05687,0.45058
531.56708,0.46917
530.07729,0.50011
528.58750,0.58874
527.09771,0.60810
525.60792,0.62749
524.11814,0.66806
522.62835,0.72679
521.13856,0.78555
519.64877,0.80898
518.15898,0.83244
516.66919,0.90151
515.17941,0.88758
513.68962,0.88717
512.19983,0.88678
510.71004,0.85897
509.22025,0.81980
507.73046,0.72904
506.24068,0.68852
504.75089,0.64802
503.26110,0.52803
501.77131,0.39993
500.28152,0.35683
498.79173,0.31377
497.30194,0.26270
495.81216,0.23561
494.32237,0.21482
492.83258,0.19406
491.34279,0.13146
489.85300,0.10121
488.36321,0.08564
486.87343,0.08613
485.38364,0.08665
483.89385,0.11394
482.40406,0.13101
480.91427,0.13568
479.42448,0.14036
477.93469,0.18216
476.44491,0.20724
474.95512,0.22805
473.46533,0.24888
471.97554,0.25869
470.48575,0.22132
468.99596,0.24745
467.50618,0.24420
466.01639,0.24097
464.52660,0.18626
463.03681,0.14506
461.54702,0.13365
460.05723,0.12226
458.56745,0.10509
457.07766,0.07701
455.58787,0.06942
454.09808,0.06185
452.60829,0.05872
451.11850,0.02563
449.62871,0.01662
448.13893,0.00764
446.64914,0.03940
445.15935,0.02049
443.66956,0.04369
442.17977,0.05192
440.68998,0.06017
439.20020,0.05949
437.71041,0.07140
436.22062,0.06845
434.73083,0.06552
433.24104,0.06494
431.75125,0.06160
430.26146,0.06898
428.77168,0.07638
427.28189,0.05777
425.79210,0.03918
424.30231,0.03817
422.81252,0.03718
421.32273,0.05680
419.83295,0.05133
418.34316,0.04309
416.85337,0.03488
415.36358,0.05157
413.87379,0.05294
412.38400,0.05492
410.89422,0.05692
409.40443,0.04976
407.91464,0.03868
406.42485,0.05133
404.93506,0.04181
403.44527,0.03231
401.95548,0.03155
400.46570,0.02035
398.97591,0.01895
397.48612,0.01757
395.99633,0.03807
394.50654,0.03976
393.01675,0.03822
391.52697,0.03670
390.03718,0.03591
388.54739,0.02677
387.05760,0.02840
385.56781,0.03006
384.07802,0.02755
382.58824,0.01228
381.09845,0.01076
379.60866,0.00926
378.11887,0.01727
376.62908,0.00764
375.13929,0.01234
373.64950,0.01706
372.15972,0.01855
370.66993,0.02936
369.18014,0.02434
367.69035,0.01934
366.20056,0.02274
364.71077,0.03268
363.22099,0.02787
361.73120,0.02309
360.24141,0.02612
358.75162,0.01825
357.26183,0.02272
355.77204,0.02722
354.28225,0.05663
352.79247,0.08187
351.30268,0.08587
349.81289,0.08989
348.32310,0.09660
346.83331,0.09939
345.34352,0.08558
343.85374,0.07179
342.36395,0.01862
340.87416,0.04628
339.38437,0.03328
337.89458,0.02030
336.40479,0.02712
334.91501,0.02837
333.42522,0.02768
331.93543,0.02701
330.44564,0.00764
328.95585,0.03252
327.46606,0.04160
325.97627,0.05071
324.48649,0.05241
322.99670,0.01344
321.50691,0.01536
320.01712,0.01731
318.52733,0.04660
317.03754,0.07081
315.54776,0.07632
314.05797,0.08185
312.56818,0.08939
311.07839,0.09834
309.58860,0.08605
308.09881,0.07378
306.60902,0.08676
305.11924,0.05559
303.62945,0.03502
302.13966,0.01448
300.64987,0.01314
299.16008,0.00764
