1778.52000,0.01162
1777.03021,0.01033
1775.54042,0.00439
1774.05063,0.01833
1772.56085,0.01828
1771.07106,0.01802
1769.58127,0.00960
1768.09148,0.01196
1766.60169,0.00943
1765.11190,0.00599
1763.62212,0.00889
1762.13233,0.01017
1760.64254,0.00330
1759.15275,0.01421
1757.66296,0.01089
1756.17317,0.00713
1754.68339,0.00806
1753.19360,0.01019
1751.70381,0.00954
1750.21402,0.00961
1748.72423,0.01624
1747.23444,0.00632
1745.74465,0.01510
1744.25487,0.01107
1742.76508,0.00775
1741.27529,0.01381
1739.78550,0.00330
1738.29571,0.01262
1736.80592,0.01613
1735.31614,0.01452
1733.82635,0.01060
1732.33656,0.00810
1730.84677,0.00587
1729.35698,0.01977
1727.86719,0.01197
1726.37740,0.01564
1724.88762,0.01047
1723.39783,0.00928
1721.90804,0.00579
1720.41825,0.01212
1718.92846,0.00330
1717.43867,0.00694
1715.94889,0.01038
1714.45910,0.01874
1712.96931,0.01334
1711.47952,0.00984
1709.98973,0.00379
1708.49994,0.00967
1707.01016,0.00648
1705.52037,0.00330
1704.03058,0.00992
1702.54079,0.01400
1701.05100,0.01483
1699.56121,0.01078
1698.07142,0.01516
1696.58164,0.00929
1695.09185,0.01979
1693.60206,0.00976
1692.11227,0.02008
1690.62248,0.02294
1689.13269,0.01532
1687.64291,0.02501
1686.15312,0.02047
1684.66333,0.02180
1683.17354,0.02828
1681.68375,0.02802
1680.19396,0.02031
1678.70417,0.03878
1677.21439,0.03649
1675.72460,0.03329
1674.23481,0.04622
1672.74502,0.03630
1671.25523,0.03643
1669.76544,0.05645
1668.27566,0.04940
1666.78587,0.05801
1665.29608,0.04307
1663.80629,0.05547
1662.31650,0.05575
1660.82671,0.06353
1659.33693,0.08511
1657.84714,0.07636
1656.35735,0.06646
1654.86756,0.06242
1653.37777,0.05514
1651.88798,0.06446
1650.39819,0.05186
1648.90841,0.07361
1647.41862,0.06992
1645.92883,0.07245
1644.43904,0.07500
1642.94925,0.07303
1641.45946,0.06734
1639.96968,0.07755
1638.47989,0.06677
1636.99010,0.07143
1635.50031,0.07587
1634.01052,0.08058
1632.52073,0.09372
1631.03094,0.09987
1629.54116,0.09600
1628.05137,0.09170
1626.56158,0.09092
1625.07179,0.07568
1623.58200,0.06981
1622.09221,0.06069
1620.60243,0.07729
1619.11264,0.07989
1617.62285,0.09420
1616.13306,0.08284
1614.64327,0.08856
1613.15348,0.09033
1611.66370,0.08955
1610.17391,0.08763
1608.68412,0.08667
1607.19433,0.09671
1605.70454,0.09649
1604.21475,0.09805
1602.72496,0.09964
1601.23518,0.07824
1599.74539,0.08583
1598.25560,0.08831
1596.76581,0.08613
1595.27602,0.08842
1593.78623,0.10054
1592.29645,0.09097
1590.80666,0.08679
1589.31687,0.07633
1587.82708,0.07757
1586.33729,0.08257
1584.84750,0.08502
1583.35771,0.09310
1581.86793,0.10028
1580.37814,0.07945
1578.88835,0.06215
1577.39856,0.06589
1575.90877,0.06755
1574.41898,0.06574
1572.92920,0.06208
1571.43941,0.04746
1569.94962,0.05705
1568.45983,0.06665
1566.97004,0.04697
1565.48025,0.04273
1563.99047,0.03898
1562.50068,0.03222
1561.01089,0.02431
1559.52110,0.03184
1558.03131,0.03122
1556.54152,0.02479
1555.05173,0.02795
1553.56195,0.01456
1552.07216,0.01544
1550.58237,0.02358
1549.09258,0.02147
1547.60279,0.01447
1546.11300,0.00330
1544.62322,0.00388
1543.13343,0.01689
1541.64364,0.00961
1540.15385,0.00913
1538.66406,0.00867
1537.17427,0.00846
1535.68448,0.01833
1534.19470,0.01887
1532.70491,0.00496
1531.21512,0.00251
1529.72533,0.00780
1528.23554,0.00330
1526.74575,0.01911
1525.25597,0.02140
1523.76618,0.01997
1522.27639,0.03235
1520.78660,0.03307
1519.29681,0.03476
1517.80702,0.03529
1516.31724,0.03118
1514.82745,0.03831
1513.33766,0.04172
1511.84787,0.04516
1510.35808,0.04862
1508.86829,0.06261
1507.37850,0.04276
1505.88872,0.06311
1504.39893,0.05335
1502.90914,0.04712
1501.41935,0.04932
1499.92956,0.06790
1498.43977,0.06664
1496.94999,0.07405
1495.46020,0.08569
1493.97041,0.08918
1492.48062,0.09760
1490.99083,0.09856
1489.50104,0.11333
1488.01125,0.11096
1486.52147,0.10861
1485.03168,0.13373
1483.54189,0.16635
1482.05210,0.17073
1480.56231,0.17630
1479.07252,0.18610
1477.58274,0.17887
1476.09295,0.19619
1474.60316,0.20816
1473.11337,0.21689
1471.62358,0.22190
1470.13379,0.20779
1468.64401,0.23037
1467.15422,0.23171
1465.66443,0.24138
1464.17464,0.25106
1462.68485,0.29219
1461.19506,0.32563
1459.70527,0.37380
1458.21549,0.40472
1456.72570,0.45809
1455.23591,0.51708
1453.74612,0.58894
1452.25633,0.66363
1450.76654,0.65893
1449.27676,0.65776
1447.78697,0.65358
1446.29718,0.64289
1444.80739,0.63688
1443.31760,0.63091
1441.82781,0.59249
1440.33802,0.52163
1438.84824,0.48233
1437.35845,0.49116
1435.86866,0.48133
1434.37887,0.48997
1432.88908,0.53765
1431.39929,0.55661
1429.90951,0.59429
1428.41972,0.64787
1426.92993,0.72740
1425.44014,0.78127
1423.95035,0.79767
1422.46056,0.81410
1420.97078,0.86943
1419.48099,0.90307
1417.99120,0.92786
1416.50141,0.91180
1415.01162,0.88993
1413.52183,0.84939
1412.03204,0.80491
1410.54226,0.70791
1409.05247,0.62564
1407.56268,0.55904
1406.07289,0.50975
1404.58310,0.49120
1403.09331,0.47267
1401.60353,0.41294
1400.11374,0.36118
1398.62395,0.31574
1397.13416,0.30116
1395.64437,0.24620
1394.15458,0.19290
1392.66479,0.18002
1391.17501,0.14685
1389.68522,0.12048
1388.19543,0.10020
1386.70564,0.09174
1385.21585,0.08331
1383.72606,0.04815
1382.23628,0.03521
1380.74649,0.02790
1379.25670,0.02108
1377.76691,0.01194
1376.27712,0.00330
1374.78733,0.00703
1373.29755,0.00401
1371.80776,0.01106
1370.31797,0.02492
1368.82818,0.02222
1367.33839,0.01954
1365.84860,0.01852
1364.35881,0.03131
1362.86903,0.03220
1361.37924,0.04387
1359.88945,0.06887
1358.39966,0.09179
1356.90987,0.12921
1355.42008,0.16643
1353.93030,0.23146
1352.44051,0.25413
1350.95072,0.27682
1349.46093,0.35547
1347.97114,0.40215
1346.48135,0.50584
1344.99156,0.54112
1343.50178,0.61800
1342.01199,0.65659
1340.52220,0.71483
1339.03241,0.73386
1337.54262,0.76856
1336.05283,0.79978
1334.56305,0.83103
1333.07326,0.86650
1331.58347,0.86976
1330.09368,0.84876
1328.60389,0.79743
1327.11410,0.76293
1325.62432,0.77656
1324.13453,0.73978
1322.64474,0.71376
1321.15495,0.67095
1319.66516,0.64428
1318.17537,0.61763
1316.68558,0.57489
1315.19580,0.52960
1313.70601,0.51611
1312.21622,0.47788
1310.72643,0.42519
1309.23664,0.39495
1307.74685,0.37757
1306.25707,0.34808
1304.76728,0.31721
1303.27749,0.28636
1301.78770,0.24783
1300.29791,0.22474
1298.80812,0.20260
1297.31834,0.17092
1295.82855,0.13342
1294.33876,0.11276
1292.84897,0.08815
1291.35918,0.07290
1289.86939,0.06971
1288.37960,0.06655
1286.88982,0.05651
1285.40003,0.06846
1283.91024,0.06431
1282.42045,0.06112
1280.93066,0.04792
1279.44087,0.04735
1277.95109,0.03629
1276.46130,0.04020
1274.97151,0.03305
1273.48172,0.02591
1271.99193,0.03223
1270.50214,0.02340
1269.01235,0.01575
1267.52257,0.01981
1266.03278,0.01128
1264.54299,0.01888
1263.05320,0.02208
1261.56341,0.01759
1260.07362,0.01312
1258.58384,0.01055
1257.09405,0.01290
1255.60426,0.00127
1254.11447,0.00952
1252.62468,0.02246
1251.13489,0.01417
1249.64511,0.00964
1248.15532,0.01262
1246.66553,0.01935
1245.17574,0.02610
1243.68595,0.00345
1242.19616,0.02005
1240.70637,0.02687
1239.21659,0.02063
1237.72680,0.01558
1236.23701,0.02947
1234.74722,0.02494
1233.25743,0.01587
1231.76764,0.00683
1230.27786,0.01171
1228.78807,0.00330
1227.29828,0.00925
1225.80849,0.02224
1224.31870,0.02403
1222.82891,0.02445
1221.33912,0.02163
1219.84934,0.02198
1218.35955,0.02235
1216.86976,0.03361
1215.37997,0.04489
1213.89018,0.03751
1212.40039,0.05118
1210.91061,0.04898
1209.42082,0.04658
1207.93103,0.03789
1206.44124,0.02923
1204.95145,0.04442
1203.46166,0.04795
1201.97188,0.04450
1200.48209,0.02659
1198.99230,0.04794
1197.50251,0.03359
1196.01272,0.04751
1194.52293,0.03659
1193.03314,0.02569
1191.54336,0.03082
1190.05357,0.02779
1188.56378,0.01661
1187.07399,0.01363
1185.58420,0.01231
1184.09441,0.02292
1182.60463,0.02142
1181.11484,0.01993
1179.62505,0.01871
1178.13526,0.02031
1176.64547,0.03315
1175.15568,0.01214
1173.66589,0.00330
1172.17611,0.01500
1170.68632,0.02054
1169.19653,0.02610
1167.70674,0.00961
1166.21695,0.01767
1164.72716,0.03440
1163.23738,0.03013
1161.74759,0.03803
1160.25780,0.04898
1158.76801,0.05658
1157.27822,0.06420
1155.78843,0.07990
1154.29865,0.07904
1152.80886,0.09339
1151.31907,0.07856
1149.82928,0.11188
1148.33949,0.12513
1146.84970,0.12159
1145.35991,0.11807
1143.87013,0.12345
1142.38034,0.14240
1140.89055,0.13545
1139.40076,0.14604
1137.91097,0.16927
1136.42118,0.18528
1134.93140,0.19150
1133.44161,0.19775
1131.95182,0.23042
1130.46203,0.25073
1128.97224,0.24490
1127.48245,0.23233
1125.99266,0.22492
1124.50288,0.22897
1123.01309,0.23772
1121.52330,0.24650
1120.03351,0.24502
1118.54372,0.24754
1117.05393,0.24003
1115.56415,0.26058
1114.07436,0.23584
1112.58457,0.22328
1111.09478,0.21073
1109.60499,0.20381
1108.11520,0.22658
1106.62542,0.23513
1105.13563,0.22245
1103.64584,0.21913
1102.15605,0.21210
1100.66626,0.21163
1099.17647,0.21119
1097.68668,0.21380
1096.19690,0.20220
1094.70711,0.19482
1093.21732,0.16948
1091.72753,0.18504
1090.23774,0.18100
1088.74795,0.17699
1087.25817,0.18304
1085.76838,0.16763
1084.27859,0.17910
1082.78880,0.17285
1081.29901,0.18414
1079.80922,0.17513
1078.31943,0.17280
1076.82965,0.17049
1075.33986,0.16833
1073.85007,0.17927
1072.36028,0.17902
1070.87049,0.20379
1069.38070,0.22858
1067.89092,0.24837
1066.40113,0.26818
1064.91134,0.30099
1063.42155,0.37258
1061.93176,0.44186
1060.44197,0.49762
1058.95219,0.56812
1057.46240,0.61062
1055.97261,0.65314
1054.48282,0.68915
1052.99303,0.78193
1051.50324,0.77524
1050.01345,0.77371
1048.52367,0.77688
1047.03388,0.77482
1045.54409,0.77278
1044.05430,0.76808
1042.56451,0.71273
1041.07472,0.66370
1039.58494,0.58550
1038.09515,0.52765
1036.60536,0.50590
1035.11557,0.48418
1033.62578,0.47427
1032.13599,0.41792
1030.64620,0.35271
1029.15642,0.28846
1027.66663,0.26977
1026.17684,0.25111
1024.68705,0.20001
1023.19726,0.17182
1021.70747,0.16958
1020.21769,0.13210
1018.72790,0.11356
1017.23811,0.10695
1015.74832,0.10037
1014.25853,0.08820
1012.76874,0.09732
1011.27896,0.08590
1009.78917,0.08665
1008.29938,0.05637
1006.80959,0.05028
1005.31980,0.04421
1003.83001,0.01026
1002.34022,0.01137
1000.85044,0.01997
999.36065,0.02252
997.87086,0.02779
996.38107,0.03307
994.89128,0.03967
993.40149,0.05773
991.91171,0.06041
990.42192,0.07408
988.93213,0.09409
987.44234,0.09858
985.95255,0.10310
984.46276,0.09258
982.97297,0.08769
981.48319,0.05550
979.99340,0.03991
978.50361,0.04233
977.01382,0.04478
975.52403,0.02366
974.03424,0.00677
972.54446,0.01606
971.05467,0.00879
969.56488,0.01112
968.07509,0.00810
966.58530,0.00510
965.09551,0.00330
963.60573,0.00350
962.11594,0.01984
960.62615,0.00865
959.13636,0.00916
957.64657,0.00969
956.15678,0.00440
954.66699,0.00662
953.17721,0.02357
951.68742,0.02770
950.19763,0.03687
948.70784,0.04607
947.21805,0.07059
945.72826,0.07832
944.23848,0.07649
942.74869,0.08474
941.25890,0.10305
939.76911,0.11250
938.27932,0.12199
936.78953,0.16839
935.29974,0.17302
933.80996,0.18164
932.32017,0.22041
930.83038,0.23001
929.34059,0.23963
927.85080,0.26143
926.36101,0.28651
924.87123,0.30345
923.38144,0.33256
921.89165,0.36075
920.40186,0.38897
918.91207,0.50316
917.42228,0.63909
915.93250,0.76524
914.44271,0.97432
912.95292,1.07856
911.46313,1.18283
909.97334,1.41744
908.48355,1.63642
906.99376,1.84002
905.50398,1.91495
904.01419,1.94729
902.52440,1.97965
901.03461,2.00000
899.54482,1.98488
898.05503,1.87753
896.56525,1.67888
895.07546,1.53830
893.58567,1.39774
892.09588,1.15455
890.60609,0.88734
889.11630,0.70493
887.62651,0.49475
886.13673,0.41877
884.64694,0.34281
883.15715,0.24854
881.66736,0.16527
880.17757,0.12571
878.68778,0.10111
877.19800,0.07653
875.70821,0.05829
874.21842,0.02863
872.72863,0.01977
871.23884,0.01211
869.74905,0.00856
868.25927,0.00503
866.76948,0.02616
865.27969,0.01416
863.78990,0.00988
862.30011,0.01871
860.81032,0.03539
859.32053,0.05209
857.83075,0.05959
856.34096,0.05263
854.85117,0.07302
853.36138,0.08456
851.87159,0.09052
850.38180,0.09651
848.89202,0.11162
847.40223,0.13166
845.91244,0.14543
844.42265,0.15326
842.93286,0.16111
841.44307,0.16046
839.95329,0.18623
838.46350,0.18633
836.97371,0.19603
835.48392,0.19758
833.99413,0.19916
832.50434,0.21220
831.01455,0.18206
829.52477,0.19608
828.03498,0.16716
826.54519,0.14725
825.05540,0.12736
823.56561,0.12840
822.07582,0.08789
820.58604,0.09529
819.09625,0.09628
817.60646,0.09730
816.11667,0.09776
814.62688,0.10034
813.13709,0.07446
811.64730,0.09741
810.15752,0.10415
808.66773,0.11092
807.17794,0.09167
805.68815,0.09954
804.19836,0.09645
802.70857,0.09689
801.21879,0.09735
799.72900,0.10064
798.23921,0.09905
796.74942,0.09188
795.25963,0.09267
793.76984,0.09349
792.28006,0.10133
790.79027,0.10243
789.30048,0.11336
787.81069,0.16308
786.32090,0.17698
784.83111,0.19090
783.34132,0.21758
781.85154,0.24100
780.36175,0.24460
778.87196,0.26504
777.38217,0.28551
775.89238,0.31393
774.40259,0.31039
772.91281,0.31527
771.42302,0.30010
769.93323,0.28495
768.44344,0.26725
766.95365,0.20801
765.46386,0.17191
763.97407,0.14844
762.48429,0.14170
760.99450,0.13499
759.50471,0.11089
758.01492,0.08682
756.52513,0.06628
755.03534,0.07274
753.54556,0.07922
752.05577,0.04380
750.56598,0.05091
749.07619,0.05385
747.58640,0.05155
746.09661,0.04927
744.60683,0.03453
743.11704,0.03242
741.62725,0.01375
740.13746,0.01647
738.64767,0.01922
737.15788,0.00880
735.66809,0.00330
734.17831,0.00947
732.68852,0.01379
731.19873,0.01814
729.70894,0.00990
728.21915,0.01243
726.72936,0.00330
725.23958,0.00520
723.74979,0.00829
722.26000,0.01140
720.77021,0.02014
719.28042,0.00812
717.79063,0.00290
716.30084,0.00144
714.81106,0.00000
713.32127,0.00040
711.83148,0.03353
710.34169,0.03468
708.85190,0.03504
707.36211,0.03542
705.87233,0.02917
704.38254,0.02108
702.89275,0.06042
701.40296,0.05891
699.91317,0.05743
698.42338,0.06391
696.93360,0.08583
695.44381,0.07134
693.95402,0.09214
692.46423,0.11296
690.97444,0.11372
689.48465,0.15771
687.99486,0.14778
686.50508,0.15900
685.01529,0.17025
683.52550,0.21177
682.03571,0.22669
680.54592,0.22598
679.05613,0.23534
677.56635,0.24473
676.07656,0.28122
674.58677,0.26403
673.09698,0.22024
671.60719,0.21045
670.11740,0.20068
668.62761,0.17191
667.13783,0.16558
665.64804,0.14666
664.15825,0.12776
662.66846,0.10726
661.17867,0.08607
659.68888,0.05954
658.19910,0.05697
656.70931,0.05443
655.21952,0.03731
653.72973,0.04567
652.23994,0.05476
650.75015,0.05395
649.26037,0.05316
647.77058,0.03896
646.28079,0.03647
644.79100,0.04544
643.30121,0.04778
641.81142,0.05015
640.32163,0.02673
638.83185,0.03510
637.34206,0.00752
635.85227,0.00572
634.36248,0.00395
632.87269,0.00330
631.38290,0.01954
629.89312,0.03253
628.40333,0.03129
626.91354,0.03008
625.42375,0.02096
623.93396,0.01139
622.44417,0.01539
620.95438,0.01941
619.46460,0.05405
617.97481,0.05766
616.48502,0.05848
614.99523,0.07195
613.50544,0.08543
612.01565,0.10384
610.52587,0.15428
609.03608,0.18628
607.54629,0.19998
606.05650,0.21370
604.56671,0.27171
603.07692,0.28676
601.58714,0.30873
600.09735,0.33072
598.60756,0.38718
597.11777,0.37687
595.62798,0.35701
594.13819,0.35644
592.64840,0.35590
591.15862,0.31462
589.66883,0.28201
588.17904,0.24756
586.68925,0.22293
585.19946,0.19834
583.70967,0.17166
582.21989,0.11371
580.73010,0.09245
579.24031,0.07122
577.75052,0.05538
576.26073,0.04914
574.77094,0.04200
573.28115,0.03510
571.79137,0.02824
570.30158,0.01953
568.81179,0.03279
567.32200,0.03872
565.83221,0.04468
564.34242,0.08558
562.85264,0.08282
561.36285,0.10835
559.87306,0.11207
558.38327,0.11581
556.89348,0.11175
555.40369,0.11916
553.91391,0.12986
552.42412,0.14058
550.93433,0.13381
549.44454,0.15463
547.95475,0.15678
546.46496,0.16504
544.97517,0.17331
543.48539,0.19049
541.99560,0.19787
540.50581,0.20774
539.01602,0.21763
537.52623,0.26012
536.03644,0.31431
534.54666,0.33957
533.05687,0.35890
531.56708,0.37825
530.07729,0.42973
528.58750,0.49059
527.09771,0.53173
525.60792,0.57289
524.11814,0.62915
522.62835,0.68566
521.13856,0.72491
519.64877,0.75204
518.15898,0.77919
516.66919,0.84584
515.17941,0.85179
513.68962,0.84410
512.19983,0.83644
510.71004,0.78080
509.22025,0.71117
507.73046,0.62989
506.24068,0.58309
504.75089,0.53630
503.26110,0.45463
501.77131,0.37134
500.28152,0.32089
498.79173,0.27047
497.30194,0.19589
495.81216,0.14657
494.32237,0.14362
492.83258,0.14070
491.34279,0.12275
489.85300,0.08986
488.36321,0.06074
486.87343,0.05605
485.38364,0.05138
483.89385,0.06040
482.40406,0.06827
480.91427,0.08248
479.42448,0.09671
477.93469,0.13385
476.44491,0.13131
474.95512,0.12949
473.46533,0.12770
471.97554,0.13411
470.48575,0.14054
468.99596,0.14115
467.50618,0.14109
466.01639,0.14105
464.52660,0.10297
463.03681,0.06561
461.54702,0.05981
460.05723,0.05403
458.56745,0.04523
457.07766,0.03810
455.58787,0.03613
454.09808,0.03418
452.60829,0.03038
451.11850,0.02895
449.62871,0.01890
448.13893,0.00887
446.64914,0.00330
445.15935,0.00538
443.66956,0.00187
442.17977,0.01383
440.68998,0.02581
439.20020,0.02543
437.71041,0.05008
436.22062,0.04251
434.73083,0.03497
433.24104,0.04380
431.75125,0.03561
430.26146,0.03935
428.77168,0.04311
427.28189,0.04340
425.79210,0.02782
424.30231,0.02442
422.81252,0.02104
421.32273,0.01184
419.83295,0.02136
418.34316,0.01770
416.85337,0.01406
415.36358,0.00917
413.87379,0.02643
412.38400,0.02970
410.89422,0.03299
409.40443,0.02931
407.91464,0.05367
406.42485,0.03415
404.93506,0.03357
403.44527,0.03301
401.95548,0.03599
400.46570,0.01679
398.97591,0.02110
397.48612,0.02543
395.99633,0.01682
394.50654,0.02341
393.01675,0.02466
391.52697,0.02593
390.03718,0.01858
388.54739,0.01708
387.05760,0.02460
385.56781,0.03214
384.07802,0.02511
382.58824,0.02395
381.09845,0.02630
379.60866,0.02869
378.11887,0.00330
376.62908,0.00583
375.13929,0.00698
373.64950,0.00815
372.15972,0.02453
370.66993,0.02202
369.18014,0.01265
367.69035,0.00330
366.20056,0.01966
364.71077,0.01526
363.22099,0.01952
361.73120,0.02381
360.24141,0.02532
358.75162,0.03689
357.26183,0.03693
355.77204,0.03699
354.28225,0.02388
352.79247,0.03695
351.30268,0.04935
349.81289,0.06177
348.32310,0.07935
346.83331,0.07406
345.34352,0.05514
343.85374,0.03624
342.36395,0.06349
340.87416,0.01066
339.38437,0.00697
337.89458,0.00330
336.40479,0.00837
334.91501,0.02630
333.42522,0.02628
331.93543,0.02627
330.44564,0.01158
328.95585,0.02774
327.46606,0.03552
325.97627,0.04332
324.48649,0.05815
322.99670,0.03774
321.50691,0.03510
320.01712,0.03249
318.52733,0.05209
317.03754,0.06493
315.54776,0.07921
314.05797,0.09350
312.56818,0.12044
311.07839,0.12427
309.58860,0.11365
308.09881,0.10305
306.60902,0.06235
305.11924,0.05507
303.62945,0.03485
302.13966,0.01466
300.64987,0.00979
299.16008,0.00330
