1778.52000,0.00779
1777.03021,0.00322
1775.54042,0.00451
1774.05063,0.00861
1772.56085,0.00662
1771.07106,0.00381
1769.58127,0.00798
1768.09148,0.01079
1766.60169,0.00278
1765.11190,0.00785
1763.62212,0.00573
1762.13233,0.00529
1760.64254,0.00905
1759.15275,0.01116
1757.66296,0.01025
1756.17317,0.00768
1754.68339,0.00820
1753.19360,0.01125
1751.70381,0.01432
1750.21402,0.00824
1748.72423,0.01108
1747.23444,0.01672
1745.74465,0.01766
1744.25487,0.00946
1742.76508,0.00628
1741.27529,0.01373
1739.78550,0.01454
1738.29571,0.02204
1736.80592,0.02762
1735.31614,0.02684
1733.82635,0.02079
1732.33656,0.00504
1730.84677,0.00571
1729.35698,0.00308
1727.86719,0.01047
1726.37740,0.00843
1724.88762,0.00559
1723.39783,0.01695
1721.90804,0.00359
1720.41825,0.00499
1718.92846,0.00530
1717.43867,0.02231
1715.94889,0.01433
1714.45910,0.01555
1712.96931,0.01401
1711.47952,0.01500
1709.98973,0.01462
1708.49994,0.01065
1707.01016,0.00796
1705.52037,0.00529
1704.03058,0.02483
1702.54079,0.00993
1701.05100,0.02090
1699.56121,0.02133
1698.07142,0.01567
1696.58164,0.01449
1695.09185,0.02500
1693.60206,0.02887
1692.11227,0.02636
1690.62248,0.03417
1689.13269,0.04478
1687.64291,0.03373
1686.15312,0.04411
1684.66333,0.02671
1683.17354,0.03269
1681.68375,0.03258
1680.19396,0.04806
1678.70417,0.04216
1677.21439,0.03851
1675.72460,0.06184
1674.23481,0.04239
1672.74502,0.04854
1671.25523,0.04220
1669.76544,0.04451
1668.27566,0.06407
1666.78587,0.06420
1665.29608,0.06408
1663.80629,0.07871
1662.31650,0.08670
1660.82671,0.07608
1659.33693,0.09913
1657.84714,0.09078
1656.35735,0.08441
1654.86756,0.07528
1653.37777,0.08369
1651.88798,0.08295
1650.39819,0.08501
1648.90841,0.08376
1647.41862,0.09088
1645.92883,0.09426
1644.43904,0.09767
1642.94925,0.09875
1641.45946,0.09150
1639.96968,0.09512
1638.47989,0.09794
1636.99010,0.09160
1635.50031,0.09196
1634.01052,0.08317
1632.52073,0.08329
1631.03094,0.08289
1629.54116,0.08279
1628.05137,0.08577
1626.56158,0.06876
1625.07179,0.10098
1623.58200,0.10042
1622.09221,0.10544
1620.60243,0.11493
1619.11264,0.09693
1617.62285,0.09480
1616.13306,0.10854
1614.64327,0.09645
1613.15348,0.10717
1611.66370,0.10125
1610.17391,0.10952
1608.68412,0.12449
1607.19433,0.11224
1605.70454,0.10446
1604.21475,0.10436
1602.72496,0.10427
1601.23518,0.09657
1599.74539,0.10417
1598.25560,0.10486
1596.76581,0.09862
1595.27602,0.08184
1593.78623,0.09677
1592.29645,0.10116
1590.80666,0.09613
1589.31687,0.07194
1587.82708,0.10225
1586.33729,0.10396
1584.84750,0.10153
1583.35771,0.09411
1581.86793,0.07533
1580.37814,0.09048
1578.88835,0.08619
1577.39856,0.08554
1575.90877,0.08020
1574.41898,0.06903
1572.92920,0.06901
1571.43941,0.06402
1569.94962,0.06530
1568.45983,0.06660
1566.97004,0.05306
1565.48025,0.04677
1563.99047,0.03689
1562.50068,0.03537
1561.01089,0.03137
1559.52110,0.03463
1558.03131,0.02790
1556.54152,0.03232
1555.05173,0.03148
1553.56195,0.04734
1552.07216,0.03014
1550.58237,0.01020
1549.09258,-0.00000
1547.60279,0.00892
1546.11300,0.01537
1544.62322,0.01656
1543.13343,0.05057
1541.64364,0.01150
1540.15385,0.00901
1538.66406,0.00654
1537.17427,0.00896
1535.68448,0.00529
1534.19470,0.01144
1532.70491,0.02706
1531.21512,0.02631
1529.72533,0.04281
1528.23554,0.03071
1526.74575,0.04559
1525.25597,0.05022
1523.76618,0.04180
1522.27639,0.03230
1520.78660,0.04644
1519.29681,0.04978
1517.80702,0.04590
1516.31724,0.05178
1514.82745,0.04935
1513.33766,0.05139
1511.84787,0.05345
1510.35808,0.06276
1508.86829,0.06237
1507.37850,0.05394
1505.88872,0.05415
1504.39893,0.05244
1502.90914,0.04937
1501.41935,0.07078
1499.92956,0.06942
1498.43977,0.07948
1496.94999,0.08234
1495.46020,0.09773
1493.97041,0.10842
1492.48062,0.12025
1490.99083,0.12848
1489.50104,0.14175
1488.01125,0.13530
1486.52147,0.12888
1485.03168,0.16250
1483.54189,0.19032
1482.05210,0.20148
1480.56231,0.22601
1479.07252,0.20747
1477.58274,0.25429
1476.09295,0.25526
1474.60316,0.28433
1473.11337,0.27896
1471.62358,0.28251
1470.13379,0.28135
1468.64401,0.30135
1467.15422,0.31636
1465.66443,0.31959
1464.17464,0.32284
1462.68485,0.34404
1461.19506,0.38000
1459.70527,0.43655
1458.21549,0.48229
1456.72570,0.52305
1455.23591,0.58134
1453.74612,0.65522
1452.25633,0.70328
1450.76654,0.76165
1449.27676,0.74471
1447.78697,0.75809
1446.29718,0.73953
1444.80739,0.71433
1443.31760,0.68914
1441.82781,0.60283
1440.33802,0.56158
1438.84824,0.53841
1437.35845,0.51472
1435.86866,0.48771
1434.37887,0.51465
1432.88908,0.52661
1431.39929,0.59697
1429.90951,0.66234
1428.41972,0.73969
1426.92993,0.82290
1425.44014,0.86028
1423.95035,0.87460
1422.46056,0.88895
1420.97078,0.90666
1419.48099,0.93607
1417.99120,0.95799
1416.50141,0.93380
1415.01162,0.89018
1413.52183,0.84046
1412.03204,0.81273
1410.54226,0.76195
1409.05247,0.68895
1407.56268,0.64767
1406.07289,0.56667
1404.58310,0.53502
1403.09331,0.50340
1401.60353,0.47195
1400.11374,0.39743
1398.62395,0.38048
1397.13416,0.31602
1395.64437,0.27131
1394.15458,0.24582
1392.66479,0.20200
1391.17501,0.15153
1389.68522,0.12138
1388.19543,0.09375
1386.70564,0.08422
1385.21585,0.07471
1383.72606,0.04883
1382.23628,0.04326
1380.74649,0.02465
1379.25670,0.02580
1377.76691,0.01724
1376.27712,0.01789
1374.78733,0.01605
1373.29755,0.02147
1371.80776,0.02107
1370.31797,0.01236
1368.82818,0.00881
1367.33839,0.00529
1365.84860,0.02459
1364.35881,0.03974
1362.86903,0.06186
1361.37924,0.05927
1359.88945,0.08589
1358.39966,0.11003
1356.90987,0.13892
1355.42008,0.18007
1353.93030,0.24208
1352.44051,0.27146
1350.95072,0.30087
1349.46093,0.39159
1347.97114,0.45231
1346.48135,0.49694
1344.99156,0.56716
1343.50178,0.61795
1342.01199,0.64514
1340.52220,0.74462
1339.03241,0.82495
1337.54262,0.87695
1336.05283,0.90409
1334.56305,0.93126
1333.07326,0.95581
1331.58347,0.90700
1330.09368,0.90909
1328.60389,0.92760
1327.11410,0.93501
1325.62432,0.89742
1324.13453,0.85846
1322.64474,0.80952
1321.15495,0.75365
1319.66516,0.74020
1318.17537,0.72677
1316.68558,0.67209
1315.19580,0.60409
1313.70601,0.56419
1312.21622,0.53821
1310.72643,0.52810
1309.23664,0.48660
1307.74685,0.44707
1306.25707,0.36949
1304.76728,0.36615
1303.27749,0.36283
1301.78770,0.34091
1300.29791,0.31234
1298.80812,0.26240
1297.31834,0.24083
1295.82855,0.17731
1294.33876,0.16997
1292.84897,0.12763
1291.35918,0.11978
1289.86939,0.11876
1288.37960,0.11777
1286.88982,0.11471
1285.40003,0.10529
1283.91024,0.08727
1282.42045,0.07679
1280.93066,0.06494
1279.44087,0.05839
1277.95109,0.05520
1276.46130,0.05315
1274.97151,0.04918
1273.48172,0.04523
1271.99193,0.03853
1270.50214,0.02379
1269.01235,0.02714
1267.52257,0.04413
1266.03278,0.03919
1264.54299,0.04484
1263.05320,0.04495
1261.56341,0.05106
1260.07362,0.05720
1258.58384,0.05071
1257.09405,0.02368
1255.60426,0.00529
1254.11447,0.03069
1252.62468,0.02249
1251.13489,0.03627
1249.64511,0.02978
1248.15532,0.01859
1246.66553,0.02063
1245.17574,0.02269
1243.68595,0.02435
1242.19616,0.01521
1240.70637,0.01942
1239.21659,0.02478
1237.72680,0.02793
1236.23701,0.03000
1234.74722,0.01986
1233.25743,0.02434
1231.76764,0.02884
1230.27786,0.02600
1228.78807,0.02763
1227.29828,0.04597
1225.80849,0.02652
1224.31870,0.02100
1222.82891,0.01744
1221.33912,0.02420
1219.84934,0.03807
1218.35955,0.05196
1216.86976,0.04378
1215.37997,0.07342
1213.89018,0.07641
1212.40039,0.09387
1210.91061,0.08856
1209.42082,0.08717
1207.93103,0.08316
1206.44124,0.07918
1204.95145,0.07758
1203.46166,0.06128
1201.97188,0.04973
1200.48209,0.05821
1198.99230,0.06588
1197.50251,0.05495
1196.01272,0.04683
1194.52293,0.03887
1193.03314,0.03094
1191.54336,0.02678
1190.05357,0.03821
1188.56378,0.06134
1187.07399,0.00722
1185.58420,0.02484
1184.09441,0.03192
1182.60463,0.01859
1181.11484,0.00529
1179.62505,0.02500
1178.13526,0.00638
1176.64547,0.00779
1175.15568,0.01868
1173.66589,0.02765
1172.17611,0.03080
1170.68632,0.02898
1169.19653,0.02718
1167.70674,0.02234
1166.21695,0.02698
1164.72716,0.02692
1163.23738,0.05719
1161.74759,0.05912
1160.25780,0.07192
1158.76801,0.07501
1157.27822,0.07813
1155.78843,0.07321
1154.29865,0.09055
1152.80886,0.09986
1151.31907,0.11308
1149.82928,0.13661
1148.33949,0.12875
1146.84970,0.12620
1145.35991,0.12367
1143.87013,0.13590
1142.38034,0.15177
1140.89055,0.17072
1139.40076,0.17635
1137.91097,0.19673
1136.42118,0.22743
1134.93140,0.22591
1133.44161,0.22441
1131.95182,0.24239
1130.46203,0.24622
1128.97224,0.22617
1127.48245,0.23310
1125.99266,0.26536
1124.50288,0.29124
1123.01309,0.28963
1121.52330,0.28805
1120.03351,0.25952
1118.54372,0.22352
1117.05393,0.25230
1115.56415,0.26666
1114.07436,0.24518
1112.58457,0.23068
1111.09478,0.21620
1109.60499,0.22731
1108.11520,0.25013
1106.62542,0.23572
1105.13563,0.24468
1103.64584,0.23727
1102.15605,0.23989
1100.66626,0.23934
1099.17647,0.23881
1097.68668,0.23622
1096.19690,0.21448
1094.70711,0.19359
1093.21732,0.20664
1091.72753,0.21805
1090.23774,0.20988
1088.74795,0.20174
1087.25817,0.22489
1085.76838,0.19970
1084.27859,0.19955
1082.78880,0.19637
1081.29901,0.18682
1079.80922,0.19480
1078.31943,0.19600
1076.82965,0.19723
1075.33986,0.22252
1073.85007,0.22615
1072.36028,0.25900
1070.87049,0.26407
1069.38070,0.32198
1067.89092,0.31139
1066.40113,0.30083
1064.91134,0.35687
1063.42155,0.42683
1061.93176,0.54296
1060.44197,0.63159
1058.95219,0.72802
1057.46240,0.77098
1055.97261,0.81396
1054.48282,0.97023
1052.99303,1.03535
1051.50324,1.01100
1050.01345,1.01335
1048.52367,0.98459
1047.03388,0.98435
1045.54409,0.98414
1044.05430,0.95240
1042.56451,0.91401
1041.07472,0.79614
1039.58494,0.70666
1038.09515,0.63526
1036.60536,0.59433
1035.11557,0.55342
1033.62578,0.51129
1032.13599,0.46334
1030.64620,0.37678
1029.15642,0.31831
1027.66663,0.28183
1026.17684,0.24538
1024.68705,0.23257
1023.19726,0.20812
1021.70747,0.18536
1020.21769,0.14344
1018.72790,0.13712
1017.23811,0.13445
1015.74832,0.13179
1014.25853,0.11721
1012.76874,0.10404
1011.27896,0.09396
1009.78917,0.08334
1008.29938,0.07720
1006.80959,0.06677
1005.31980,0.05636
1003.83001,0.04195
1002.34022,0.03229
1000.85044,0.02876
999.36065,0.03805
997.87086,0.04861
996.38107,0.05920
994.89128,0.06633
993.40149,0.09295
991.91171,0.11765
990.42192,0.12764
988.93213,0.13515
987.44234,0.14212
985.95255,0.14913
984.46276,0.13531
982.97297,0.13040
981.48319,0.10357
979.99340,0.10094
978.50361,0.08568
977.01382,0.07046
975.52403,0.04705
974.03424,0.05008
972.54446,0.03784
971.05467,0.04647
969.56488,0.02733
968.07509,0.02517
966.58530,0.02304
965.09551,0.02148
963.60573,0.04692
962.11594,0.02317
960.62615,0.00529
959.13636,0.00594
957.64657,0.00661
956.15678,0.03066
954.66699,0.04583
953.17721,0.06437
951.68742,0.06458
950.19763,0.06663
948.70784,0.06870
947.21805,0.07871
945.72826,0.09320
944.23848,0.08908
942.74869,0.09167
941.25890,0.11484
939.76911,0.12275
938.27932,0.13069
936.78953,0.16672
935.29974,0.19472
933.80996,0.20078
932.32017,0.20659
930.83038,0.21493
929.34059,0.22328
927.85080,0.24751
926.36101,0.26259
924.87123,0.27964
923.38144,0.33785
921.89165,0.38232
920.40186,0.42682
918.91207,0.52319
917.42228,0.62764
915.93250,0.78159
914.44271,0.98588
912.95292,1.09276
911.46313,1.19967
909.97334,1.38347
908.48355,1.55616
906.99376,1.73222
905.50398,1.86382
904.01419,1.91735
902.52440,1.97089
901.03461,2.00000
899.54482,1.92128
898.05503,1.81368
896.56525,1.58741
895.07546,1.47137
893.58567,1.35536
892.09588,1.11971
890.60609,0.86963
889.11630,0.66822
887.62651,0.49630
886.13673,0.44128
884.64694,0.38629
883.15715,0.27309
881.66736,0.17381
880.17757,0.14016
878.68778,0.12418
877.19800,0.10823
875.70821,0.08243
874.21842,0.06806
872.72863,0.06371
871.23884,0.05161
869.74905,0.05190
868.25927,0.05221
866.76948,0.03684
865.27969,0.04485
863.78990,0.06538
862.30011,0.06399
860.81032,0.07401
859.32053,0.08406
857.83075,0.10330
856.34096,0.12480
854.85117,0.12213
853.36138,0.12421
851.87159,0.15217
850.38180,0.18015
848.89202,0.18481
847.40223,0.19227
845.91244,0.22755
844.42265,0.24312
842.93286,0.25872
841.44307,0.22930
839.95329,0.24939
838.46350,0.29647
836.97371,0.31605
835.48392,0.29716
833.99413,0.27829
832.50434,0.27404
831.01455,0.27788
829.52477,0.24949
828.03498,0.22725
826.54519,0.22712
825.05540,0.22702
823.56561,0.20290
822.07582,0.19160
820.58604,0.16502
819.09625,0.15765
817.60646,0.15031
816.11667,0.15494
814.62688,0.15598
813.13709,0.17512
811.64730,0.16314
810.15752,0.16176
808.66773,0.16039
807.17794,0.14960
805.68815,0.16747
804.19836,0.18452
802.70857,0.18312
801.21879,0.18174
799.72900,0.15189
798.23921,0.15375
796.74942,0.16648
795.25963,0.16867
793.76984,0.17088
792.28006,0.18980
790.79027,0.18317
789.30048,0.21603
787.81069,0.24558
786.32090,0.25625
784.83111,0.26695
783.34132,0.31631
781.85154,0.34763
780.36175,0.38202
778.87196,0.39671
777.38217,0.41142
775.89238,0.45256
774.40259,0.48121
772.91281,0.42011
771.42302,0.40684
769.93323,0.39360
768.44344,0.34980
766.95365,0.30492
765.46386,0.26478
763.97407,0.21911
762.48429,0.20682
760.99450,0.19456
759.50471,0.14785
758.01492,0.13201
756.52513,0.14678
755.03534,0.12072
753.54556,0.09467
752.05577,0.09061
750.56598,0.08241
749.07619,0.08173
747.58640,0.07566
746.09661,0.06961
744.60683,0.05733
743.11704,0.04730
741.62725,0.02089
740.13746,0.01939
738.64767,0.01791
737.15788,0.03799
735.66809,0.00529
734.17831,0.01147
732.68852,0.01462
731.19873,0.01779
729.70894,0.00625
728.21915,0.02259
726.72936,0.02672
725.23958,0.01865
723.74979,0.01504
722.26000,0.01147
720.77021,0.02006
719.28042,0.04619
717.79063,0.02286
716.30084,0.02083
714.81106,0.01881
713.32127,0.00529
711.83148,0.03602
710.34169,0.04343
708.85190,0.03766
707.36211,0.03191
705.87233,0.04384
704.38254,0.04495
702.89275,0.05943
701.40296,0.05975
699.91317,0.06010
698.42338,0.07437
696.93360,0.10062
695.44381,0.11550
693.95402,0.12247
692.46423,0.12948
690.97444,0.16333
689.48465,0.15356
687.99486,0.18801
686.50508,0.20234
685.01529,0.21669
683.52550,0.22453
682.03571,0.26019
680.54592,0.26892
679.05613,0.27127
677.56635,0.27365
676.07656,0.27661
674.58677,0.23178
673.09698,0.23173
671.60719,0.22962
670.11740,0.22753
668.62761,0.20726
667.13783,0.15838
665.64804,0.14970
664.15825,0.14104
662.66846,0.12031
661.17867,0.07570
659.68888,0.08948
658.19910,0.07216
656.70931,0.05486
655.21952,0.04704
653.72973,0.04564
652.23994,0.06483
650.75015,0.05499
649.26037,0.04518
647.77058,0.04943
646.28079,0.03786
644.79100,0.04300
643.30121,0.04843
641.81142,0.05389
640.32163,0.03352
638.83185,0.04153
637.34206,0.00954
635.85227,0.01913
634.36248,0.02875
632.87269,0.02171
631.38290,0.04194
629.89312,0.01104
628.40333,0.01784
626.91354,0.02466
625.42375,0.02136
623.93396,0.00529
622.44417,0.01165
620.95438,0.01803
619.46460,0.04264
617.97481,0.05393
616.48502,0.08081
614.99523,0.09660
613.50544,0.11241
612.01565,0.15216
610.52587,0.18414
609.03608,0.19919
607.54629,0.21357
606.05650,0.22797
604.56671,0.29563
603.07692,0.33274
601.58714,0.34861
600.09735,0.36450
598.60756,0.39056
597.11777,0.43193
595.62798,0.40133
594.13819,0.39522
592.64840,0.38913
591.15862,0.37279
589.66883,0.33006
588.17904,0.29763
586.68925,0.26746
585.19946,0.23731
583.70967,0.17966
582.21989,0.13289
580.73010,0.11198
579.24031,0.09110
577.75052,0.07386
576.26073,0.05025
574.77094,0.04528
573.28115,0.03867
571.79137,0.03209
570.30158,0.06222
568.81179,0.06180
567.32200,0.08879
565.83221,0.11579
564.34242,0.11628
562.85264,0.13263
561.36285,0.16708
559.87306,0.17167
558.38327,0.17628
556.89348,0.19635
555.40369,0.20170
553.91391,0.19944
552.42412,0.19720
550.93433,0.21403
549.44454,0.20475
547.95475,0.20856
546.46496,0.20891
544.97517,0.20930
543.48539,0.24570
541.99560,0.29908
540.50581,0.31719
539.01602,0.33532
537.52623,0.35737
536.03644,0.38083
534.54666,0.40570
533.05687,0.43296
531.56708,0.46024
530.07729,0.49381
528.58750,0.54602
527.09771,0.55392
525.60792,0.56184
524.11814,0.62830
522.62835,0.69423
521.13856,0.73766
519.64877,0.77209
518.15898,0.80654
516.66919,0.85728
515.17941,0.87274
513.68962,0.86543
512.19983,0.85814
510.71004,0.79306
509.22025,0.75636
507.73046,0.67631
506.24068,0.61965
504.75089,0.56300
503.26110,0.48581
501.77131,0.37807
500.28152,0.33081
498.79173,0.28357
497.30194,0.23928
495.81216,0.17194
494.32237,0.14924
492.83258,0.12656
491.34279,0.10043
489.85300,0.06598
488.36321,0.04991
486.87343,0.06402
485.38364,0.07815
483.89385,0.09606
482.40406,0.08175
480.91427,0.10333
479.42448,0.12492
477.93469,0.15655
476.44491,0.16680
474.95512,0.17262
473.46533,0.17847
471.97554,0.18629
470.48575,0.21554
468.99596,0.19199
467.50618,0.18348
466.01639,0.17500
464.52660,0.15181
463.03681,0.14003
461.54702,0.11286
460.05723,0.08571
458.56745,0.03676
457.07766,0.04537
455.58787,0.03178
454.09808,0.01820
452.60829,0.01327
451.11850,0.01337
449.62871,0.00932
448.13893,0.00529
446.64914,0.02140
445.15935,0.01529
443.66956,0.02283
442.17977,0.02817
440.68998,0.03354
439.20020,0.04226
437.71041,0.05184
436.22062,0.05200
434.73083,0.05218
433.24104,0.05516
431.75125,0.05066
430.26146,0.05119
428.77168,0.05175
427.28189,0.03592
425.79210,0.03319
424.30231,0.04438
422.81252,0.05559
421.32273,0.04987
419.83295,0.04779
418.34316,0.03295
416.85337,0.01813
415.36358,0.03613
413.87379,0.02442
412.38400,0.02190
410.89422,0.01941
409.40443,0.02417
407.91464,0.01978
406.42485,0.04821
404.93506,0.05152
403.44527,0.05484
401.95548,0.02998
400.46570,0.04322
398.97591,0.02424
397.48612,0.00529
395.99633,0.02203
394.50654,0.01684
393.01675,0.02098
391.52697,0.02514
390.03718,0.00529
388.54739,0.02123
387.05760,0.02107
385.56781,0.02094
384.07802,0.00971
382.58824,0.00268
381.09845,0.00735
379.60866,0.01203
378.11887,0.01703
376.62908,0.01704
375.13929,0.01318
373.64950,0.00935
372.15972,0.00193
370.66993,0.00704
369.18014,0.01155
367.69035,0.01608
366.20056,0.06998
364.71077,0.05107
363.22099,0.03650
361.73120,0.02195
360.24141,0.00951
358.75162,0.00043
357.26183,0.01578
355.77204,0.03116
354.28225,0.04489
352.79247,0.10229
351.30268,0.08313
349.81289,0.06400
348.32310,0.09923
346.83331,0.11531
345.34352,0.08610
343.85374,0.05692
342.36395,0.05834
340.87416,0.04144
339.38437,0.02734
337.89458,0.01326
336.40479,0.00529
334.91501,0.01932
333.42522,0.01600
331.93543,0.01271
330.44564,0.00847
328.95585,0.00925
327.46606,0.01479
325.97627,0.02035
324.48649,0.02148
322.99670,0.02570
321.50691,0.02494
320.01712,0.02420
318.52733,0.02432
317.03754,0.05977
315.54776,0.07384
314.05797,0.08793
312.56818,0.14124
311.07839,0.12119
309.58860,0.09490
308.09881,0.06865
306.60902,0.04867
305.11924,0.02288
303.62945,0.02185
302.13966,0.00855
300.64987,0.00529
299.16008,0.00529
