1778.52000,0.02373
1777.03021,0.00000
1775.54042,0.01751
1774.05063,0.01187
1772.56085,0.02647
1771.07106,0.01926
1769.58127,0.02852
1768.09148,0.03133
1766.60169,0.01774
1765.11190,0.01576
1763.62212,0.02026
1762.13233,0.01025
1760.64254,0.02180
1759.15275,0.03042
1757.66296,0.02614
1756.17317,0.01191
1754.68339,0.01171
1753.19360,0.01046
1751.70381,0.02109
1750.21402,0.01504
1748.72423,0.01575
1747.23444,0.00895
1745.74465,0.01913
1744.25487,0.02341
1742.76508,0.03122
1741.27529,0.02316
1739.78550,0.01270
1738.29571,0.03786
1736.80592,0.02560
1735.31614,0.03977
1733.82635,0.02001
1732.33656,0.02103
1730.84677,0.01479
1729.35698,0.01370
1727.86719,0.01533
1726.37740,0.01159
1724.88762,0.01811
1723.39783,0.00985
1721.90804,0.01265
1720.41825,0.01278
1718.92846,0.01025
1717.43867,0.02474
1715.94889,0.01205
1714.45910,0.02921
1712.96931,0.02404
1711.47952,0.02832
1709.98973,0.02051
1708.49994,0.01730
1707.01016,0.01695
1705.52037,0.01661
1704.03058,0.01025
1702.54079,0.01871
1701.05100,0.03231
1699.56121,0.02465
1698.07142,0.01703
1696.58164,0.01508
1695.09185,0.03201
1693.60206,0.02688
1692.11227,0.02151
1690.62248,0.03286
1689.13269,0.02376
1687.64291,0.02088
1686.15312,0.03743
1684.66333,0.04052
1683.17354,0.03045
1681.68375,0.03144
1680.19396,0.03408
1678.70417,0.02757
1677.21439,0.04049
1675.72460,0.04832
1674.23481,0.03731
1672.74502,0.04842
1671.25523,0.05578
1669.76544,0.07825
1668.27566,0.06438
1666.78587,0.06643
1665.29608,0.06689
1663.80629,0.05982
1662.31650,0.08242
1660.82671,0.08726
1659.33693,0.07865
1657.84714,0.07816
1656.35735,0.06610
1654.86756,0.06915
1653.37777,0.06630
1651.88798,0.07829
1650.39819,0.06310
1648.90841,0.08080
1647.41862,0.08936
1645.92883,0.07896
1644.43904,0.06858
1642.94925,0.07210
1641.45946,0.07861
1639.96968,0.08029
1638.47989,0.08766
1636.99010,0.07592
1635.50031,0.09357
1634.01052,0.08619
1632.52073,0.08800
1631.03094,0.09737
1629.54116,0.09222
1628.05137,0.08548
1626.56158,0.06584
1625.07179,0.06723
1623.58200,0.06352
1622.09221,0.05904
1620.60243,0.08879
1619.11264,0.07330
1617.62285,0.08721
1616.13306,0.08821
1614.64327,0.07630
1613.15348,0.09298
1611.66370,0.09405
1610.17391,0.10000
1608.68412,0.10031
1607.19433,0.11466
1605.70454,0.10505
1604.21475,0.09480
1602.72496,0.08458
1601.23518,0.08205
1599.74539,0.08467
1598.25560,0.10132
1596.76581,0.09159
1595.27602,0.10075
1593.78623,0.10239
1592.29645,0.09759
1590.80666,0.08769
1589.31687,0.07001
1587.82708,0.07794
1586.33729,0.08455
1584.84750,0.09442
1583.35771,0.09273
1581.86793,0.08190
1580.37814,0.07865
1578.88835,0.07945
1577.39856,0.07059
1575.90877,0.06525
1574.41898,0.06397
1572.92920,0.06784
1571.43941,0.06877
1569.94962,0.06353
1568.45983,0.05832
1566.97004,0.06121
1565.48025,0.03907
1563.99047,0.03743
1562.50068,0.04120
1561.01089,0.05685
1559.52110,0.04209
1558.03131,0.04486
1556.54152,0.03256
1555.05173,0.03835
1553.56195,0.03580
1552.07216,0.04756
1550.58237,0.04264
1549.09258,0.03747
1547.60279,0.01940
1546.11300,0.01025
1544.62322,0.02028
1543.13343,0.02280
1541.64364,0.03342
1540.15385,0.03154
1538.66406,0.02968
1537.17427,0.02637
1535.68448,0.01420
1534.19470,0.01686
1532.70491,0.01174
1531.21512,0.01928
1529.72533,0.03951
1528.23554,0.03148
1526.74575,0.02806
1525.25597,0.04755
1523.76618,0.05765
1522.27639,0.03167
1520.78660,0.03157
1519.29681,0.03770
1517.80702,0.04385
1516.31724,0.05541
1514.82745,0.05569
1513.33766,0.05733
1511.84787,0.05900
1510.35808,0.07174
1508.86829,0.06565
1507.37850,0.07170
1505.88872,0.04626
1504.39893,0.05506
1502.90914,0.04179
1501.41935,0.05495
1499.92956,0.05897
1498.43977,0.06463
1496.94999,0.07867
1495.46020,0.09651
1493.97041,0.10709
1492.48062,0.10316
1490.99083,0.11029
1489.50104,0.12014
1488.01125,0.13163
1486.52147,0.14315
1485.03168,0.13341
1483.54189,0.14525
1482.05210,0.14094
1480.56231,0.16468
1479.07252,0.19168
1477.58274,0.19095
1476.09295,0.20614
1474.60316,0.22351
1473.11337,0.22313
1471.62358,0.21630
1470.13379,0.22513
1468.64401,0.24017
1467.15422,0.24635
1465.66443,0.26414
1464.17464,0.28196
1462.68485,0.29898
1461.19506,0.33409
1459.70527,0.37918
1458.21549,0.40706
1456.72570,0.47537
1455.23591,0.54990
1453.74612,0.58997
1452.25633,0.61714
1450.76654,0.65053
1449.27676,0.67532
1447.78697,0.67617
1446.29718,0.67326
1444.80739,0.66392
1443.31760,0.65460
1441.82781,0.57985
1440.33802,0.51024
1438.84824,0.49103
1437.35845,0.48289
1435.86866,0.46292
1434.37887,0.47287
1432.88908,0.49874
1431.39929,0.53892
1429.90951,0.56942
1428.41972,0.65948
1426.92993,0.76303
1425.44014,0.85206
1423.95035,0.86623
1422.46056,0.88042
1420.97078,0.88171
1419.48099,0.90646
1417.99120,0.92449
1416.50141,0.90861
1415.01162,0.88549
1413.52183,0.82602
1412.03204,0.78193
1410.54226,0.71739
1409.05247,0.65853
1407.56268,0.61991
1406.07289,0.54036
1404.58310,0.53006
1403.09331,0.51979
1401.60353,0.45271
1400.11374,0.38888
1398.62395,0.35391
1397.13416,0.34562
1395.64437,0.27783
1394.15458,0.23161
1392.66479,0.20804
1391.17501,0.17777
1389.68522,0.15560
1388.19543,0.10355
1386.70564,0.08776
1385.21585,0.07200
1383.72606,0.06205
1382.23628,0.05913
1380.74649,0.04303
1379.25670,0.03342
1377.76691,0.02142
1376.27712,0.01025
1374.78733,0.02537
1373.29755,0.01844
1371.80776,0.02688
1370.31797,0.04316
1368.82818,0.03266
1367.33839,0.02219
1365.84860,0.03774
1364.35881,0.04280
1362.86903,0.05382
1361.37924,0.06674
1359.88945,0.08885
1358.39966,0.11638
1356.90987,0.14338
1355.42008,0.17015
1353.93030,0.22226
1352.44051,0.24907
1350.95072,0.27590
1349.46093,0.36014
1347.97114,0.40750
1346.48135,0.48075
1344.99156,0.56694
1343.50178,0.63054
1342.01199,0.64298
1340.52220,0.69234
1339.03241,0.76490
1337.54262,0.81109
1336.05283,0.84140
1334.56305,0.87174
1333.07326,0.90857
1331.58347,0.94058
1330.09368,0.88291
1328.60389,0.88857
1327.11410,0.88832
1325.62432,0.85739
1324.13453,0.82837
1322.64474,0.80180
1321.15495,0.73108
1319.66516,0.70011
1318.17537,0.66917
1316.68558,0.60148
1315.19580,0.57746
1313.70601,0.55104
1312.21622,0.49851
1310.72643,0.46136
1309.23664,0.43178
1307.74685,0.42862
1306.25707,0.37646
1304.76728,0.35598
1303.27749,0.33552
1301.78770,0.28829
1300.29791,0.27394
1298.80812,0.22460
1297.31834,0.18471
1295.82855,0.16370
1294.33876,0.14972
1292.84897,0.11691
1291.35918,0.11267
1289.86939,0.10873
1288.37960,0.10482
1286.88982,0.09312
1285.40003,0.09194
1283.91024,0.10696
1282.42045,0.08052
1280.93066,0.06972
1279.44087,0.03929
1277.95109,0.05467
1276.46130,0.03317
1274.97151,0.04079
1273.48172,0.04844
1271.99193,0.05099
1270.50214,0.07108
1269.01235,0.03543
1267.52257,0.03159
1266.03278,0.01754
1264.54299,0.01025
1263.05320,0.02756
1261.56341,0.03184
1260.07362,0.03614
1258.58384,0.03090
1257.09405,0.02353
1255.60426,0.01430
1254.11447,0.01776
1252.62468,0.02744
1251.13489,0.03902
1249.64511,0.02316
1248.15532,0.02213
1246.66553,0.03150
1245.17574,0.04090
1243.68595,0.02621
1242.19616,0.03929
1240.70637,0.03300
1239.21659,0.02404
1237.72680,0.02993
1236.23701,0.04688
1234.74722,0.02668
1233.25743,0.02146
1231.76764,0.01626
1230.27786,0.03088
1228.78807,0.01025
1227.29828,0.02352
1225.80849,0.02416
1224.31870,0.02859
1222.82891,0.03547
1221.33912,0.04345
1219.84934,0.04432
1218.35955,0.04522
1216.86976,0.03092
1215.37997,0.05543
1213.89018,0.05142
1212.40039,0.06574
1210.91061,0.06582
1209.42082,0.06323
1207.93103,0.06847
1206.44124,0.07374
1204.95145,0.04293
1203.46166,0.03720
1201.97188,0.05143
1200.48209,0.04522
1198.99230,0.04872
1197.50251,0.05333
1196.01272,0.04691
1194.52293,0.04120
1193.03314,0.03551
1191.54336,0.02648
1190.05357,0.02690
1188.56378,0.02384
1187.07399,0.03050
1185.58420,0.02777
1184.09441,0.04068
1182.60463,0.03704
1181.11484,0.03344
1179.62505,0.01409
1178.13526,0.01471
1176.64547,0.01805
1175.15568,0.02222
1173.66589,0.01025
1172.17611,0.01175
1170.68632,0.01691
1169.19653,0.02210
1167.70674,0.02153
1166.21695,0.02205
1164.72716,0.03715
1163.23738,0.02021
1161.74759,0.05906
1160.25780,0.07504
1158.76801,0.08498
1157.27822,0.09495
1155.78843,0.09214
1154.29865,0.08856
1152.80886,0.09065
1151.31907,0.09277
1149.82928,0.12481
1148.33949,0.13021
1146.84970,0.12823
1145.35991,0.12627
1143.87013,0.12393
1142.38034,0.13078
1140.89055,0.14600
1139.40076,0.16879
1137.91097,0.17840
1136.42118,0.18050
1134.93140,0.19433
1133.44161,0.20820
1131.95182,0.22437
1130.46203,0.24758
1128.97224,0.26353
1127.48245,0.21891
1125.99266,0.22360
1124.50288,0.21081
1123.01309,0.23777
1121.52330,0.26476
1120.03351,0.24504
1118.54372,0.23234
1117.05393,0.24957
1115.56415,0.24420
1114.07436,0.22862
1112.58457,0.22653
1111.09478,0.22446
1109.60499,0.22215
1108.11520,0.21960
1106.62542,0.24077
1105.13563,0.24015
1103.64584,0.20831
1102.15605,0.19400
1100.66626,0.19400
1099.17647,0.19401
1097.68668,0.21911
1096.19690,0.21379
1094.70711,0.20768
1093.21732,0.18625
1091.72753,0.18397
1090.23774,0.18817
1088.74795,0.19240
1087.25817,0.17295
1085.76838,0.15164
1084.27859,0.16295
1082.78880,0.18182
1081.29901,0.16490
1079.80922,0.17089
1078.31943,0.16088
1076.82965,0.15090
1075.33986,0.19145
1073.85007,0.17626
1072.36028,0.18831
1070.87049,0.20899
1069.38070,0.25261
1067.89092,0.24964
1066.40113,0.24670
1064.91134,0.29092
1063.42155,0.35106
1061.93176,0.42012
1060.44197,0.50078
1058.95219,0.55076
1057.46240,0.59214
1055.97261,0.63355
1054.48282,0.75957
1052.99303,0.79806
1051.50324,0.82176
1050.01345,0.83014
1048.52367,0.83638
1047.03388,0.82796
1045.54409,0.81958
1044.05430,0.78737
1042.56451,0.75896
1041.07472,0.71092
1039.58494,0.61898
1038.09515,0.56129
1036.60536,0.53877
1035.11557,0.51628
1033.62578,0.49637
1032.13599,0.41129
1030.64620,0.35749
1029.15642,0.30075
1027.66663,0.27986
1026.17684,0.25900
1024.68705,0.22226
1023.19726,0.18906
1021.70747,0.17877
1020.21769,0.15936
1018.72790,0.16205
1017.23811,0.15063
1015.74832,0.13923
1014.25853,0.12907
1012.76874,0.12647
1011.27896,0.12875
1009.78917,0.09819
1008.29938,0.08140
1006.80959,0.08079
1005.31980,0.08020
1003.83001,0.04139
1002.34022,0.06133
1000.85044,0.04815
999.36065,0.04255
997.87086,0.04074
996.38107,0.03896
994.89128,0.07168
993.40149,0.07991
991.91171,0.07847
990.42192,0.09941
988.93213,0.12118
987.44234,0.13032
985.95255,0.13949
984.46276,0.12093
982.97297,0.11021
981.48319,0.09924
979.99340,0.06891
978.50361,0.06338
977.01382,0.05787
975.52403,0.05024
974.03424,0.04343
972.54446,0.04635
971.05467,0.02398
969.56488,0.01025
968.07509,0.02025
966.58530,0.03028
965.09551,0.04330
963.60573,0.04611
962.11594,0.04221
960.62615,0.04345
959.13636,0.03098
957.64657,0.01853
956.15678,0.01634
954.66699,0.01229
953.17721,0.03952
951.68742,0.05842
950.19763,0.05902
948.70784,0.05965
947.21805,0.08455
945.72826,0.09358
944.23848,0.09213
942.74869,0.10686
941.25890,0.11570
939.76911,0.12927
938.27932,0.14287
936.78953,0.15609
935.29974,0.17930
933.80996,0.23270
932.32017,0.23441
930.83038,0.24247
929.34059,0.25056
927.85080,0.25342
926.36101,0.27624
924.87123,0.29720
923.38144,0.34727
921.89165,0.37529
920.40186,0.40332
918.91207,0.52324
917.42228,0.63672
915.93250,0.74941
914.44271,0.91223
912.95292,1.03629
911.46313,1.16037
909.97334,1.39627
908.48355,1.53629
906.99376,1.72106
905.50398,1.82342
904.01419,1.87826
902.52440,1.93312
901.03461,2.00000
899.54482,1.92629
898.05503,1.85260
896.56525,1.65233
895.07546,1.51687
893.58567,1.38143
892.09588,1.10473
890.60609,0.89755
889.11630,0.70576
887.62651,0.48866
886.13673,0.41234
884.64694,0.33605
883.15715,0.26260
881.66736,0.20670
880.17757,0.14138
878.68778,0.11920
877.19800,0.09704
875.70821,0.05766
874.21842,0.02746
872.72863,0.02342
871.23884,0.03988
869.74905,0.03495
868.25927,0.03004
866.76948,0.02475
865.27969,0.01949
863.78990,0.03607
862.30011,0.03409
860.81032,0.04492
859.32053,0.05579
857.83075,0.05065
856.34096,0.07382
854.85117,0.08812
853.36138,0.10460
851.87159,0.09808
850.38180,0.09158
848.89202,0.13319
847.40223,0.13119
845.91244,0.14160
844.42265,0.14799
842.93286,0.15441
841.44307,0.15170
839.95329,0.17110
838.46350,0.19726
836.97371,0.19057
835.48392,0.19267
833.99413,0.19480
832.50434,0.21243
831.01455,0.21366
829.52477,0.17451
828.03498,0.16474
826.54519,0.14962
825.05540,0.13451
823.56561,0.12913
822.07582,0.10734
820.58604,0.11305
819.09625,0.10896
817.60646,0.10489
816.11667,0.09882
814.62688,0.09574
813.13709,0.09673
811.64730,0.09720
810.15752,0.10551
808.66773,0.11384
807.17794,0.08583
805.68815,0.09314
804.19836,0.09858
802.70857,0.10957
801.21879,0.12059
799.72900,0.12449
798.23921,0.09017
796.74942,0.07715
795.25963,0.08409
793.76984,0.09105
792.28006,0.09911
790.79027,0.09616
789.30048,0.12179
787.81069,0.16279
786.32090,0.17567
784.83111,0.18857
783.34132,0.18385
781.85154,0.22846
780.36175,0.25261
778.87196,0.27154
777.38217,0.29049
775.89238,0.31769
774.40259,0.35002
772.91281,0.34467
771.42302,0.32197
769.93323,0.29929
768.44344,0.25792
766.95365,0.19663
765.46386,0.18413
763.97407,0.14903
762.48429,0.12701
760.99450,0.10502
759.50471,0.09908
758.01492,0.06677
756.52513,0.06680
755.03534,0.07360
753.54556,0.08042
752.05577,0.05359
750.56598,0.04915
749.07619,0.04796
747.58640,0.04680
746.09661,0.04566
744.60683,0.03539
743.11704,0.03565
741.62725,0.04267
740.13746,0.03746
738.64767,0.03227
737.15788,0.02373
735.66809,0.01065
734.17831,0.01025
732.68852,0.01533
731.19873,0.02045
729.70894,0.01467
728.21915,0.01674
726.72936,0.01290
725.23958,0.01609
723.74979,0.01756
722.26000,0.01905
720.77021,0.01692
719.28042,0.01025
717.79063,0.02368
716.30084,0.02259
714.81106,0.02152
713.32127,0.01347
711.83148,0.04101
710.34169,0.02493
708.85190,0.03097
707.36211,0.03703
705.87233,0.03396
704.38254,0.04249
702.89275,0.05644
701.40296,0.05762
699.91317,0.05882
698.42338,0.07984
696.93360,0.08904
695.44381,0.10580
693.95402,0.10953
692.46423,0.11327
690.97444,0.11961
689.48465,0.11411
687.99486,0.15336
686.50508,0.15761
685.01529,0.16188
683.52550,0.21009
682.03571,0.22088
680.54592,0.25944
679.05613,0.26974
677.56635,0.28007
676.07656,0.29338
674.58677,0.24880
673.09698,0.21906
671.60719,0.21332
670.11740,0.20761
668.62761,0.15963
667.13783,0.16689
665.64804,0.15492
664.15825,0.14298
662.66846,0.11610
661.17867,0.08845
659.68888,0.06755
658.19910,0.04426
656.70931,0.02099
655.21952,0.04246
653.72973,0.05587
652.23994,0.06230
650.75015,0.05112
649.26037,0.03996
647.77058,0.04188
646.28079,0.02794
644.79100,0.02858
643.30121,0.03139
641.81142,0.03422
640.32163,0.04328
638.83185,0.02138
637.34206,0.02698
635.85227,0.01860
634.36248,0.01025
632.87269,0.02768
631.38290,0.00904
629.89312,0.02248
628.40333,0.02921
626.91354,0.03597
625.42375,0.03332
623.93396,0.02800
622.44417,0.03537
620.95438,0.04276
619.46460,0.03267
617.97481,0.03311
616.48502,0.04381
614.99523,0.06207
613.50544,0.08037
612.01565,0.13774
610.52587,0.17224
609.03608,0.19734
607.54629,0.21681
606.05650,0.23630
604.56671,0.24693
603.07692,0.29502
601.58714,0.32146
600.09735,0.34792
598.60756,0.36888
597.11777,0.36616
595.62798,0.40064
594.13819,0.38033
592.64840,0.36004
591.15862,0.31324
589.66883,0.30472
588.17904,0.29380
586.68925,0.26324
585.19946,0.23270
583.70967,0.19546
582.21989,0.13641
580.73010,0.11457
579.24031,0.09275
577.75052,0.08147
576.26073,0.04973
574.77094,0.03337
573.28115,0.02243
571.79137,0.01151
570.30158,0.04641
568.81179,0.03365
567.32200,0.05931
565.83221,0.08499
564.34242,0.10221
562.85264,0.11460
561.36285,0.14695
559.87306,0.14216
558.38327,0.13739
556.89348,0.14234
555.40369,0.15997
553.91391,0.15703
552.42412,0.15410
550.93433,0.19175
549.44454,0.16476
547.95475,0.16474
546.46496,0.17216
544.97517,0.17960
543.48539,0.19662
541.99560,0.23522
540.50581,0.25283
539.01602,0.27047
537.52623,0.30376
536.03644,0.34569
534.54666,0.36636
533.05687,0.40066
531.56708,0.43499
530.07729,0.47244
528.58750,0.51207
527.09771,0.53489
525.60792,0.55773
524.11814,0.62330
522.62835,0.67164
521.13856,0.71517
519.64877,0.73111
518.15898,0.74707
516.66919,0.85101
515.17941,0.84129
513.68962,0.84736
512.19983,0.85346
510.71004,0.82280
509.22025,0.74261
507.73046,0.66622
506.24068,0.61611
504.75089,0.56603
503.26110,0.49347
501.77131,0.39724
500.28152,0.33713
498.79173,0.27705
497.30194,0.24527
495.81216,0.20921
494.32237,0.19378
492.83258,0.17837
491.34279,0.13565
489.85300,0.10858
488.36321,0.07533
486.87343,0.06716
485.38364,0.05902
483.89385,0.11232
482.40406,0.12901
480.91427,0.12377
479.42448,0.11855
477.93469,0.13935
476.44491,0.16557
474.95512,0.16379
473.46533,0.16204
471.97554,0.17917
470.48575,0.17531
468.99596,0.18037
467.50618,0.17953
466.01639,0.17871
464.52660,0.12619
463.03681,0.12327
461.54702,0.11350
460.05723,0.10375
458.56745,0.09470
457.07766,0.07437
455.58787,0.07224
454.09808,0.07014
452.60829,0.03236
451.11850,0.04364
449.62871,0.02693
448.13893,0.01025
446.64914,0.01147
445.15935,0.03750
443.66956,0.06814
442.17977,0.07173
440.68998,0.07534
439.20020,0.08288
437.71041,0.07833
436.22062,0.06895
434.73083,0.05960
433.24104,0.07263
431.75125,0.05929
430.26146,0.06348
428.77168,0.06769
427.28189,0.06331
425.79210,0.04979
424.30231,0.04910
422.81252,0.04843
421.32273,0.06165
419.83295,0.06413
418.34316,0.05572
416.85337,0.04734
415.36358,0.01972
413.87379,0.06899
412.38400,0.07573
410.89422,0.08250
409.40443,0.07070
407.91464,0.06162
406.42485,0.05444
404.93506,0.04366
403.44527,0.03290
401.95548,0.03120
400.46570,0.03382
398.97591,0.03809
397.48612,0.04238
395.99633,0.04669
394.50654,0.03352
393.01675,0.03196
391.52697,0.02990
390.03718,0.03298
388.54739,0.03151
387.05760,0.03545
385.56781,0.03942
384.07802,0.04071
382.58824,0.01025
381.09845,0.00977
379.60866,0.00933
378.11887,0.01793
376.62908,0.02144
375.13929,0.02874
373.64950,0.03607
372.15972,0.05285
370.66993,0.03114
369.18014,0.02253
367.69035,0.01394
366.20056,0.04403
364.71077,0.05879
363.22099,0.03788
361.73120,0.01700
360.24141,0.03722
358.75162,0.02945
357.26183,0.02346
355.77204,0.01749
354.28225,0.03270
352.79247,0.05143
351.30268,0.06277
349.81289,0.07414
348.32310,0.09322
346.83331,0.07622
345.34352,0.05332
343.85374,0.03044
342.36395,0.03291
340.87416,0.02274
339.38437,0.02095
337.89458,0.01919
336.40479,0.02606
334.91501,0.04105
333.42522,0.04124
331.93543,0.04146
330.44564,0.03901
328.95585,0.06163
327.46606,0.06785
325.97627,0.07410
324.48649,0.06151
322.99670,0.03817
321.50691,0.03937
320.01712,0.04059
318.52733,0.06662
317.03754,0.07759
315.54776,0.08872
314.05797,0.09987
312.56818,0.13031
311.07839,0.12818
309.58860,0.11517
308.09881,0.10217
306.60902,0.09473
305.11924,0.05498
303.62945,0.04584
302.13966,0.03672
300.64987,0.01025
299.16008,0.01025
