1778.52000,0.01274
1777.03021,0.01196
1775.54042,0.00314
1774.05063,0.01231
1772.56085,0.02398
1771.07106,0.01585
1769.58127,0.01560
1768.09148,0.00917
1766.60169,0.00422
1765.11190,0.00919
1763.62212,0.00614
1762.13233,0.01984
1760.64254,0.01209
1759.15275,0.01220
1757.66296,0.01296
1756.17317,0.00797
1754.68339,0.00630
1753.19360,0.00651
1751.70381,0.00262
1750.21402,0.01360
1748.72423,0.01346
1747.23444,0.01128
1745.74465,0.01490
1744.25487,0.00781
1742.76508,0.01685
1741.27529,0.01352
1739.78550,0.00836
1738.29571,0.01767
1736.80592,0.02287
1735.31614,0.01963
1733.82635,0.02136
1732.33656,0.01012
1730.84677,0.00695
1729.35698,0.01186
1727.86719,0.01555
1726.37740,0.00522
1724.88762,0.01123
1723.39783,0.00756
1721.90804,0.00825
1720.41825,0.00422
1718.92846,0.01038
1717.43867,0.00706
1715.94889,0.01637
1714.45910,0.01352
1712.96931,0.01234
1711.47952,0.00912
1709.98973,0.00283
1708.49994,0.00131
1707.01016,0.00065
1705.52037,0.00000
1704.03058,0.01515
1702.54079,0.00907
1701.05100,0.01312
1699.56121,0.00295
1698.07142,0.00416
1696.58164,0.00374
1695.09185,0.01408
1693.60206,0.00422
1692.11227,0.01296
1690.62248,0.01966
1689.13269,0.02329
1687.64291,0.01601
1686.15312,0.01328
1684.66333,0.01286
1683.17354,0.01060
1681.68375,0.01600
1680.19396,0.00449
1678.70417,0.01551
1677.21439,0.02615
1675.72460,0.01843
1674.23481,0.02354
1672.74502,0.02722
1671.25523,0.03609
1669.76544,0.03446
1668.27566,0.04131
1666.78587,0.04055
1665.29608,0.04415
1663.80629,0.04860
1662.31650,0.05843
1660.82671,0.05281
1659.33693,0.05589
1657.84714,0.06229
1656.35735,0.05736
1654.86756,0.05266
1653.37777,0.05768
1651.88798,0.06604
1650.39819,0.04882
1648.90841,0.07580
1647.41862,0.07266
1645.92883,0.07471
1644.43904,0.07678
1642.94925,0.07310
1641.45946,0.08596
1639.96968,0.07427
1638.47989,0.08222
1636.99010,0.07285
1635.50031,0.06949
1634.01052,0.07255
1632.52073,0.07337
1631.03094,0.07132
1629.54116,0.06971
1628.05137,0.07163
1626.56158,0.06842
1625.07179,0.07823
1623.58200,0.08270
1622.09221,0.07563
1620.60243,0.06611
1619.11264,0.08428
1617.62285,0.08554
1616.13306,0.07031
1614.64327,0.07183
1613.15348,0.08369
1611.66370,0.08505
1610.17391,0.08292
1608.68412,0.09589
1607.19433,0.08307
1605.70454,0.09299
1604.21475,0.08806
1602.72496,0.08316
1601.23518,0.09047
1599.74539,0.08293
1598.25560,0.08533
1596.76581,0.07784
1595.27602,0.07038
1593.78623,0.07284
1592.29645,0.08194
1590.80666,0.07682
1589.31687,0.07048
1587.82708,0.06500
1586.33729,0.07832
1584.84750,0.07618
1583.35771,0.07324
1581.86793,0.06207
1580.37814,0.08003
1578.88835,0.06787
1577.39856,0.06317
1575.90877,0.06840
1574.41898,0.05569
1572.92920,0.05519
1571.43941,0.04563
1569.94962,0.04425
1568.45983,0.04289
1566.97004,0.02762
1565.48025,0.03157
1563.99047,0.02770
1562.50068,0.02654
1561.01089,0.02685
1559.52110,0.02099
1558.03131,0.02527
1556.54152,0.00748
1555.05173,0.01057
1553.56195,0.01553
1552.07216,0.01392
1550.58237,0.01006
1549.09258,0.00457
1547.60279,0.00798
1546.11300,0.00770
1544.62322,0.02190
1543.13343,0.01485
1541.64364,0.01320
1540.15385,0.00775
1538.66406,0.00232
1537.17427,0.01091
1535.68448,0.00384
1534.19470,0.00422
1532.70491,0.00879
1531.21512,0.01049
1529.72533,0.01160
1528.23554,0.01789
1526.74575,0.04362
1525.25597,0.04438
1523.76618,0.03217
1522.27639,0.02287
1520.78660,0.03217
1519.29681,0.03324
1517.80702,0.03640
1516.31724,0.03958
1514.82745,0.05001
1513.33766,0.04343
1511.84787,0.03688
1510.35808,0.03767
1508.86829,0.03788
1507.37850,0.03563
1505.88872,0.03939
1504.39893,0.04606
1502.90914,0.03996
1501.41935,0.05762
1499.92956,0.07799
1498.43977,0.06701
1496.94999,0.06595
1495.46020,0.06926
1493.97041,0.08415
1492.48062,0.08813
1490.99083,0.09109
1489.50104,0.10440
1488.01125,0.11000
1486.52147,0.11562
1485.03168,0.12900
1483.54189,0.15355
1482.05210,0.16925
1480.56231,0.17879
1479.07252,0.18359
1477.58274,0.20494
1476.09295,0.23271
1474.60316,0.21550
1473.11337,0.22494
1471.62358,0.24019
1470.13379,0.23048
1468.64401,0.24661
1467.15422,0.27700
1465.66443,0.28615
1464.17464,0.29532
1462.68485,0.30927
1461.19506,0.33273
1459.70527,0.38554
1458.21549,0.41277
1456.72570,0.46190
1455.23591,0.50384
1453.74612,0.56768
1452.25633,0.66251
1450.76654,0.67644
1449.27676,0.66582
1447.78697,0.66287
1446.29718,0.62795
1444.80739,0.60956
1443.31760,0.59120
1441.82781,0.55387
1440.33802,0.50149
1438.84824,0.48382
1437.35845,0.46287
1435.86866,0.45701
1434.37887,0.46274
1432.88908,0.49904
1431.39929,0.53413
1429.90951,0.58576
1428.41972,0.67746
1426.92993,0.75659
1425.44014,0.80127
1423.95035,0.80541
1422.46056,0.80958
1420.97078,0.82687
1419.48099,0.84295
1417.99120,0.87764
1416.50141,0.85495
1415.01162,0.82961
1413.52183,0.80099
1412.03204,0.73110
1410.54226,0.70872
1409.05247,0.65230
1407.56268,0.59136
1406.07289,0.52983
1404.58310,0.50084
1403.09331,0.47186
1401.60353,0.43167
1400.11374,0.39046
1398.62395,0.33875
1397.13416,0.28644
1395.64437,0.25645
1394.15458,0.21679
1392.66479,0.19015
1391.17501,0.15053
1389.68522,0.11382
1388.19543,0.08478
1386.70564,0.07682
1385.21585,0.06888
1383.72606,0.05498
1382.23628,0.04007
1380.74649,0.02353
1379.25670,0.00619
1377.76691,0.01137
1376.27712,0.00275
1374.78733,0.00489
1373.29755,0.00540
1371.80776,0.00572
1370.31797,0.00422
1368.82818,0.01012
1367.33839,0.01605
1365.84860,0.02179
1364.35881,0.01745
1362.86903,0.03253
1361.37924,0.06621
1359.88945,0.06545
1358.39966,0.08927
1356.90987,0.13294
1355.42008,0.17064
1353.93030,0.21972
1352.44051,0.25437
1350.95072,0.28905
1349.46093,0.36153
1347.97114,0.42619
1346.48135,0.48385
1344.99156,0.55434
1343.50178,0.60008
1342.01199,0.64419
1340.52220,0.71413
1339.03241,0.78347
1337.54262,0.84045
1336.05283,0.87155
1334.56305,0.90267
1333.07326,0.92669
1331.58347,0.92823
1330.09368,0.86106
1328.60389,0.92375
1327.11410,0.89523
1325.62432,0.86673
1324.13453,0.81699
1322.64474,0.77800
1321.15495,0.71592
1319.66516,0.70733
1318.17537,0.69877
1316.68558,0.63862
1315.19580,0.59583
1313.70601,0.55039
1312.21622,0.50847
1310.72643,0.51716
1309.23664,0.47261
1307.74685,0.43759
1306.25707,0.37388
1304.76728,0.35593
1303.27749,0.33801
1301.78770,0.33156
1300.29791,0.28324
1298.80812,0.24174
1297.31834,0.21576
1295.82855,0.18525
1294.33876,0.14363
1292.84897,0.13485
1291.35918,0.10772
1289.86939,0.10766
1288.37960,0.10762
1286.88982,0.10265
1285.40003,0.09358
1283.91024,0.07854
1282.42045,0.07117
1280.93066,0.06031
1279.44087,0.03584
1277.95109,0.04402
1276.46130,0.04376
1274.97151,0.04218
1273.48172,0.04063
1271.99193,0.03652
1270.50214,0.03181
1269.01235,0.03105
1267.52257,0.03775
1266.03278,0.01598
1264.54299,0.02953
1263.05320,0.03526
1261.56341,0.03627
1260.07362,0.03731
1258.58384,0.03362
1257.09405,0.02190
1255.60426,0.00422
1254.11447,0.01268
1252.62468,0.02095
1251.13489,0.02244
1249.64511,0.02499
1248.15532,0.01662
1246.66553,0.01962
1245.17574,0.02265
1243.68595,0.01538
1242.19616,0.01536
1240.70637,0.00422
1239.21659,0.03044
1237.72680,0.01788
1236.23701,0.03053
1234.74722,0.02649
1233.25743,0.02525
1231.76764,0.02404
1230.27786,0.03265
1228.78807,0.02540
1227.29828,0.02250
1225.80849,0.03511
1224.31870,0.02359
1222.82891,0.01643
1221.33912,0.01838
1219.84934,0.01983
1218.35955,0.02131
1216.86976,0.03840
1215.37997,0.05509
1213.89018,0.06046
1212.40039,0.07432
1210.91061,0.07457
1209.42082,0.06370
1207.93103,0.06122
1206.44124,0.05876
1204.95145,0.05168
1203.46166,0.05886
1201.97188,0.07000
1200.48209,0.06794
1198.99230,0.06322
1197.50251,0.06411
1196.01272,0.04974
1194.52293,0.04003
1193.03314,0.03035
1191.54336,0.02122
1190.05357,0.02201
1188.56378,0.04017
1187.07399,0.02367
1185.58420,0.01937
1184.09441,0.02666
1182.60463,0.01839
1181.11484,0.01014
1179.62505,0.00821
1178.13526,0.01828
1176.64547,0.00608
1175.15568,0.00422
1173.66589,0.01598
1172.17611,0.02074
1170.68632,0.02275
1169.19653,0.02477
1167.70674,0.02259
1166.21695,0.02683
1164.72716,0.03275
1163.23738,0.05046
1161.74759,0.06633
1160.25780,0.08099
1158.76801,0.07173
1157.27822,0.06249
1155.78843,0.08300
1154.29865,0.08041
1152.80886,0.09622
1151.31907,0.10979
1149.82928,0.11264
1148.33949,0.11242
1146.84970,0.11150
1145.35991,0.11060
1143.87013,0.13316
1142.38034,0.14129
1140.89055,0.15151
1139.40076,0.17538
1137.91097,0.17533
1136.42118,0.19243
1134.93140,0.20192
1133.44161,0.21143
1131.95182,0.20982
1130.46203,0.22496
1128.97224,0.22814
1127.48245,0.21917
1125.99266,0.22467
1124.50288,0.25291
1123.01309,0.25732
1121.52330,0.26176
1120.03351,0.23722
1118.54372,0.23190
1117.05393,0.23714
1115.56415,0.23352
1114.07436,0.21258
1112.58457,0.21313
1111.09478,0.21371
1109.60499,0.20957
1108.11520,0.23002
1106.62542,0.21704
1105.13563,0.21421
1103.64584,0.21718
1102.15605,0.21728
1100.66626,0.21080
1099.17647,0.20435
1097.68668,0.20535
1096.19690,0.19213
1094.70711,0.16613
1093.21732,0.18702
1091.72753,0.19679
1090.23774,0.19048
1088.74795,0.18419
1087.25817,0.17256
1085.76838,0.16962
1084.27859,0.15576
1082.78880,0.17207
1081.29901,0.18180
1079.80922,0.17668
1078.31943,0.17872
1076.82965,0.18077
1075.33986,0.18874
1073.85007,0.20457
1072.36028,0.21609
1070.87049,0.24786
1069.38070,0.26170
1067.89092,0.27784
1066.40113,0.29399
1064.91134,0.32215
1063.42155,0.39863
1061.93176,0.49145
1060.44197,0.55808
1058.95219,0.66126
1057.46240,0.71018
1055.97261,0.75912
1054.48282,0.84194
1052.99303,0.92912
1051.50324,0.93148
1050.01345,0.91384
1048.52367,0.94535
1047.03388,0.92796
1045.54409,0.91059
1044.05430,0.91204
1042.56451,0.81503
1041.07472,0.72652
1039.58494,0.62027
1038.09515,0.57040
1036.60536,0.54286
1035.11557,0.51534
1033.62578,0.47504
1032.13599,0.38419
1030.64620,0.36252
1029.15642,0.28245
1027.66663,0.26630
1026.17684,0.25017
1024.68705,0.20320
1023.19726,0.17732
1021.70747,0.17520
1020.21769,0.14151
1018.72790,0.11322
1017.23811,0.10363
1015.74832,0.09407
1014.25853,0.07968
1012.76874,0.07688
1011.27896,0.08566
1009.78917,0.06535
1008.29938,0.06778
1006.80959,0.05526
1005.31980,0.04277
1003.83001,0.03495
1002.34022,0.01456
1000.85044,0.01380
999.36065,0.01472
997.87086,0.02743
996.38107,0.04016
994.89128,0.05602
993.40149,0.07953
991.91171,0.10906
990.42192,0.11115
988.93213,0.12978
987.44234,0.12945
985.95255,0.12914
984.46276,0.12513
982.97297,0.11785
981.48319,0.09861
979.99340,0.08477
978.50361,0.07838
977.01382,0.07202
975.52403,0.05846
974.03424,0.04223
972.54446,0.02335
971.05467,0.01254
969.56488,0.02136
968.07509,0.01845
966.58530,0.01555
965.09551,0.01557
963.60573,0.01727
962.11594,0.01052
960.62615,0.00422
959.13636,0.01105
957.64657,0.01791
956.15678,0.01231
954.66699,0.02964
953.17721,0.03399
951.68742,0.04353
950.19763,0.04638
948.70784,0.04926
947.21805,0.04896
945.72826,0.06457
944.23848,0.09343
942.74869,0.08989
941.25890,0.11116
939.76911,0.11356
938.27932,0.11598
936.78953,0.13484
935.29974,0.18200
933.80996,0.19946
932.32017,0.21736
930.83038,0.21484
929.34059,0.21235
927.85080,0.23754
926.36101,0.25016
924.87123,0.27933
923.38144,0.31202
921.89165,0.34815
920.40186,0.38430
918.91207,0.47363
917.42228,0.60552
915.93250,0.75126
914.44271,0.96411
912.95292,1.06944
911.46313,1.17478
909.97334,1.37636
908.48355,1.54203
906.99376,1.74406
905.50398,1.88563
904.01419,1.91647
902.52440,1.94733
901.03461,2.00000
899.54482,1.94575
898.05503,1.76870
896.56525,1.61148
895.07546,1.47855
893.58567,1.34564
892.09588,1.12203
890.60609,0.91722
889.11630,0.66537
887.62651,0.48476
886.13673,0.42062
884.64694,0.35649
883.15715,0.27711
881.66736,0.17939
880.17757,0.14919
878.68778,0.12428
877.19800,0.09939
875.70821,0.08702
874.21842,0.06642
872.72863,0.04583
871.23884,0.05893
869.74905,0.04944
868.25927,0.03997
866.76948,0.04694
865.27969,0.04216
863.78990,0.05042
862.30011,0.04776
860.81032,0.05751
859.32053,0.06728
857.83075,0.08657
856.34096,0.11559
854.85117,0.12151
853.36138,0.13014
851.87159,0.13714
850.38180,0.14417
848.89202,0.16443
847.40223,0.19049
845.91244,0.21988
844.42265,0.21730
842.93286,0.21474
841.44307,0.24297
839.95329,0.22291
838.46350,0.27162
836.97371,0.29392
835.48392,0.28570
833.99413,0.27751
832.50434,0.26830
831.01455,0.27316
829.52477,0.23531
828.03498,0.22535
826.54519,0.21562
825.05540,0.20591
823.56561,0.17786
822.07582,0.17150
820.58604,0.16579
819.09625,0.16289
817.60646,0.16001
816.11667,0.14260
814.62688,0.15061
813.13709,0.15534
811.64730,0.15720
810.15752,0.14918
808.66773,0.14118
807.17794,0.14683
805.68815,0.15313
804.19836,0.16254
802.70857,0.16289
801.21879,0.16327
799.72900,0.15397
798.23921,0.13912
796.74942,0.14741
795.25963,0.15707
793.76984,0.16675
792.28006,0.15509
790.79027,0.17793
789.30048,0.19481
787.81069,0.22141
786.32090,0.23122
784.83111,0.24104
783.34132,0.28217
781.85154,0.31919
780.36175,0.36222
778.87196,0.37689
777.38217,0.39158
775.89238,0.42064
774.40259,0.43342
772.91281,0.39833
771.42302,0.37390
769.93323,0.34948
768.44344,0.31281
766.95365,0.27245
765.46386,0.25503
763.97407,0.20501
762.48429,0.18732
760.99450,0.16966
759.50471,0.14572
758.01492,0.12697
756.52513,0.11010
755.03534,0.10193
753.54556,0.09377
752.05577,0.07161
750.56598,0.07837
749.07619,0.06864
747.58640,0.06089
746.09661,0.05317
744.60683,0.04578
743.11704,0.03367
741.62725,0.03768
740.13746,0.02964
738.64767,0.02162
737.15788,0.02426
735.66809,0.02445
734.17831,0.00422
732.68852,0.01168
731.19873,0.01916
729.70894,0.00355
728.21915,0.01274
726.72936,0.01575
725.23958,0.01054
723.74979,0.01113
722.26000,0.01174
720.77021,0.01547
719.28042,0.01220
717.79063,0.00422
716.30084,0.00581
714.81106,0.00743
713.32127,0.02342
711.83148,0.01239
710.34169,0.02863
708.85190,0.03024
707.36211,0.03188
705.87233,0.02486
704.38254,0.02820
702.89275,0.03651
701.40296,0.04113
699.91317,0.04577
698.42338,0.07005
696.93360,0.08939
695.44381,0.10402
693.95402,0.10236
692.46423,0.10072
690.97444,0.13874
689.48465,0.13756
687.99486,0.16903
686.50508,0.17863
685.01529,0.18826
683.52550,0.21092
682.03571,0.20676
680.54592,0.26043
679.05613,0.25829
677.56635,0.25617
676.07656,0.24550
674.58677,0.21958
673.09698,0.22094
671.60719,0.21674
670.11740,0.21257
668.62761,0.18819
667.13783,0.14113
665.64804,0.13197
664.15825,0.12283
662.66846,0.09711
661.17867,0.06872
659.68888,0.05274
658.19910,0.04164
656.70931,0.03056
655.21952,0.03447
653.72973,0.03778
652.23994,0.04298
650.75015,0.03798
649.26037,0.03301
647.77058,0.02651
646.28079,0.03304
644.79100,0.03794
643.30121,0.03802
641.81142,0.03812
640.32163,0.01873
638.83185,0.02353
637.34206,0.01286
635.85227,0.00975
634.36248,0.00667
632.87269,0.02622
631.38290,0.01153
629.89312,0.01855
628.40333,0.01805
626.91354,0.01757
625.42375,0.00422
623.93396,0.01118
622.44417,0.01538
620.95438,0.01960
619.46460,0.03262
617.97481,0.02976
616.48502,0.06471
614.99523,0.08328
613.50544,0.10186
612.01565,0.14039
610.52587,0.14984
609.03608,0.16984
607.54629,0.18759
606.05650,0.20536
604.56671,0.25062
603.07692,0.27897
601.58714,0.30074
600.09735,0.32253
598.60756,0.36561
597.11777,0.38064
595.62798,0.37463
594.13819,0.37649
592.64840,0.37838
591.15862,0.35015
589.66883,0.31885
588.17904,0.28654
586.68925,0.25332
585.19946,0.22013
583.70967,0.15445
582.21989,0.11790
580.73010,0.09778
579.24031,0.07769
577.75052,0.05834
576.26073,0.05306
574.77094,0.03707
573.28115,0.03565
571.79137,0.03426
570.30158,0.04517
568.81179,0.05466
567.32200,0.07440
565.83221,0.09416
564.34242,0.09959
562.85264,0.12033
561.36285,0.15017
559.87306,0.15124
558.38327,0.15233
556.89348,0.14901
555.40369,0.16408
553.91391,0.16669
552.42412,0.16932
550.93433,0.16775
549.44454,0.16124
547.95475,0.16425
546.46496,0.17524
544.97517,0.18624
543.48539,0.22133
541.99560,0.26676
540.50581,0.27577
539.01602,0.28481
537.52623,0.32185
536.03644,0.36489
534.54666,0.38980
533.05687,0.40698
531.56708,0.42419
530.07729,0.48839
528.58750,0.50245
527.09771,0.53118
525.60792,0.55995
524.11814,0.60876
522.62835,0.66585
521.13856,0.71099
519.64877,0.74831
518.15898,0.78566
516.66919,0.83190
515.17941,0.83152
513.68962,0.83136
512.19983,0.83123
510.71004,0.79004
509.22025,0.73525
507.73046,0.67594
506.24068,0.62852
504.75089,0.58113
503.26110,0.45170
501.77131,0.38072
500.28152,0.33041
498.79173,0.28012
497.30194,0.23130
495.81216,0.18828
494.32237,0.15871
492.83258,0.12916
491.34279,0.09674
489.85300,0.06951
488.36321,0.07120
486.87343,0.08314
485.38364,0.09510
483.89385,0.09521
482.40406,0.10732
480.91427,0.11677
479.42448,0.12625
477.93469,0.14834
476.44491,0.16385
474.95512,0.17174
473.46533,0.17966
471.97554,0.19400
470.48575,0.19598
468.99596,0.19241
467.50618,0.18102
466.01639,0.16965
464.52660,0.15418
463.03681,0.13006
461.54702,0.11246
460.05723,0.09489
458.56745,0.06011
457.07766,0.05673
455.58787,0.04542
454.09808,0.03414
452.60829,0.01865
451.11850,0.00422
449.62871,0.01222
448.13893,0.02024
446.64914,0.01395
445.15935,0.04091
443.66956,0.02970
442.17977,0.02905
440.68998,0.02842
439.20020,0.03566
437.71041,0.05263
436.22062,0.04071
434.73083,0.02882
433.24104,0.04215
431.75125,0.05095
430.26146,0.04729
428.77168,0.04365
427.28189,0.04013
425.79210,0.04078
424.30231,0.03958
422.81252,0.03841
421.32273,0.04016
419.83295,0.02562
418.34316,0.02710
416.85337,0.02860
415.36358,0.02012
413.87379,0.03313
412.38400,0.02903
410.89422,0.02496
409.40443,0.01822
407.91464,0.01956
406.42485,0.02897
404.93506,0.03026
403.44527,0.03156
401.95548,0.05075
400.46570,0.03982
398.97591,0.03263
397.48612,0.02547
395.99633,0.01833
394.50654,0.02256
393.01675,0.01629
391.52697,0.01005
390.03718,0.01470
388.54739,0.01627
387.05760,0.01757
385.56781,0.01888
384.07802,0.00422
382.58824,0.00378
381.09845,0.01358
379.60866,0.02340
378.11887,0.01539
376.62908,0.02392
375.13929,0.01648
373.64950,0.00905
372.15972,0.00321
370.66993,0.01369
369.18014,0.01265
367.69035,0.01163
366.20056,0.03582
364.71077,0.04373
363.22099,0.04093
361.73120,0.03815
360.24141,0.00422
358.75162,0.00453
357.26183,0.01725
355.77204,0.02999
354.28225,0.05040
352.79247,0.06195
351.30268,0.06351
349.81289,0.06510
348.32310,0.07115
346.83331,0.07392
345.34352,0.05948
343.85374,0.04506
342.36395,0.05306
340.87416,0.04375
339.38437,0.02631
337.89458,0.00889
336.40479,0.02492
334.91501,0.01868
333.42522,0.01144
331.93543,0.00422
330.44564,0.01478
328.95585,0.04105
327.46606,0.02936
325.97627,0.01770
324.48649,0.01844
322.99670,0.02664
321.50691,0.03198
320.01712,0.03734
318.52733,0.03260
317.03754,0.04379
315.54776,0.05624
314.05797,0.06871
312.56818,0.10453
311.07839,0.10405
309.58860,0.09492
308.09881,0.08581
306.60902,0.04658
305.11924,0.04929
303.62945,0.03127
302.13966,0.01328
300.64987,0.00430
299.16008,0.00422
