1778.52000,0.03216
1777.03021,0.02447
1775.54042,0.02558
1774.05063,0.03653
1772.56085,0.02414
1771.07106,0.02186
1769.58127,0.04166
1768.09148,0.02190
1766.60169,0.02182
1765.11190,0.02443
1763.62212,0.01404
1762.13233,0.02493
1760.64254,0.02070
1759.15275,0.01596
1757.66296,0.00275
1756.17317,0.02038
1754.68339,0.00987
1753.19360,0.01188
1751.70381,0.01789
1750.21402,0.01463
1748.72423,0.00873
1747.23444,0.01588
1745.74465,0.00659
1744.25487,0.01299
1742.76508,0.01968
1741.27529,0.00275
1739.78550,0.00954
1738.29571,0.01263
1736.80592,0.02000
1735.31614,0.02234
1733.82635,0.00957
1732.33656,0.00320
1730.84677,0.00136
1729.35698,0.00514
1727.86719,0.01265
1726.37740,-0.00000
1724.88762,0.00969
1723.39783,0.00213
1721.90804,0.00045
1720.41825,0.00410
1718.92846,0.00778
1717.43867,0.01042
1715.94889,0.01069
1714.45910,0.00275
1712.96931,0.01407
1711.47952,0.00018
1709.98973,0.00842
1708.49994,0.01323
1707.01016,0.00798
1705.52037,0.00275
1704.03058,0.01458
1702.54079,0.01102
1701.05100,0.02316
1699.56121,0.01407
1698.07142,0.01563
1696.58164,0.01191
1695.09185,0.02229
1693.60206,0.01888
1692.11227,0.02426
1690.62248,0.02143
1689.13269,0.02819
1687.64291,0.03151
1686.15312,0.03141
1684.66333,0.02178
1683.17354,0.02518
1681.68375,0.03445
1680.19396,0.03153
1678.70417,0.02916
1677.21439,0.03664
1675.72460,0.04362
1674.23481,0.04186
1672.74502,0.04649
1671.25523,0.04930
1669.76544,0.06673
1668.27566,0.05949
1666.78587,0.05519
1665.29608,0.05305
1663.80629,0.07642
1662.31650,0.08123
1660.82671,0.07863
1659.33693,0.08295
1657.84714,0.07880
1656.35735,0.08052
1654.86756,0.07350
1653.37777,0.07527
1651.88798,0.08052
1650.39819,0.07569
1648.90841,0.08603
1647.41862,0.07967
1645.92883,0.07731
1644.43904,0.07497
1642.94925,0.08063
1641.45946,0.08871
1639.96968,0.09096
1638.47989,0.09297
1636.99010,0.09183
1635.50031,0.08884
1634.01052,0.09544
1632.52073,0.10128
1631.03094,0.08083
1629.54116,0.08831
1628.05137,0.09713
1626.56158,0.07145
1625.07179,0.06147
1623.58200,0.08737
1622.09221,0.09098
1620.60243,0.09302
1619.11264,0.10332
1617.62285,0.09479
1616.13306,0.08974
1614.64327,0.09347
1613.15348,0.09537
1611.66370,0.10686
1610.17391,0.08915
1608.68412,0.10042
1607.19433,0.10109
1605.70454,0.10099
1604.21475,0.09268
1602.72496,0.08439
1601.23518,0.07745
1599.74539,0.09365
1598.25560,0.11120
1596.76581,0.08469
1595.27602,0.11211
1593.78623,0.09521
1592.29645,0.09586
1590.80666,0.08060
1589.31687,0.07811
1587.82708,0.07511
1586.33729,0.09711
1584.84750,0.09363
1583.35771,0.09097
1581.86793,0.08303
1580.37814,0.09450
1578.88835,0.07519
1577.39856,0.07103
1575.90877,0.07700
1574.41898,0.06121
1572.92920,0.06218
1571.43941,0.05574
1569.94962,0.04467
1568.45983,0.03363
1566.97004,0.05700
1565.48025,0.04242
1563.99047,0.03026
1562.50068,0.04282
1561.01089,0.04319
1559.52110,0.04438
1558.03131,0.02355
1556.54152,0.01682
1555.05173,0.02047
1553.56195,0.01353
1552.07216,0.02918
1550.58237,0.03477
1549.09258,0.01993
1547.60279,0.00538
1546.11300,0.00599
1544.62322,0.01194
1543.13343,0.02535
1541.64364,0.02445
1540.15385,0.02569
1538.66406,0.02696
1537.17427,0.02692
1535.68448,0.01788
1534.19470,0.00275
1532.70491,0.00627
1531.21512,0.02177
1529.72533,0.03517
1528.23554,0.04434
1526.74575,0.04212
1525.25597,0.04842
1523.76618,0.04199
1522.27639,0.05710
1520.78660,0.03585
1519.29681,0.04013
1517.80702,0.04814
1516.31724,0.04423
1514.82745,0.04831
1513.33766,0.04750
1511.84787,0.04672
1510.35808,0.06894
1508.86829,0.06807
1507.37850,0.06935
1505.88872,0.07225
1504.39893,0.06535
1502.90914,0.06112
1501.41935,0.06357
1499.92956,0.07905
1498.43977,0.09004
1496.94999,0.08937
1495.46020,0.11528
1493.97041,0.11254
1492.48062,0.14089
1490.99083,0.14882
1489.50104,0.16978
1488.01125,0.16979
1486.52147,0.16982
1485.03168,0.18502
1483.54189,0.19785
1482.05210,0.22930
1480.56231,0.23793
1479.07252,0.25561
1477.58274,0.27252
1476.09295,0.27963
1474.60316,0.28703
1473.11337,0.30641
1471.62358,0.31970
1470.13379,0.31177
1468.64401,0.32325
1467.15422,0.36132
1465.66443,0.37484
1464.17464,0.38839
1462.68485,0.42972
1461.19506,0.45540
1459.70527,0.50103
1458.21549,0.56315
1456.72570,0.58253
1455.23591,0.67233
1453.74612,0.71486
1452.25633,0.79886
1450.76654,0.83109
1449.27676,0.84050
1447.78697,0.81461
1446.29718,0.78370
1444.80739,0.77047
1443.31760,0.75727
1441.82781,0.67039
1440.33802,0.63559
1438.84824,0.57186
1437.35845,0.56580
1435.86866,0.52124
1434.37887,0.56277
1432.88908,0.60300
1431.39929,0.64405
1429.90951,0.67715
1428.41972,0.76446
1426.92993,0.87810
1425.44014,0.92880
1423.95035,0.96201
1422.46056,0.99523
1420.97078,1.00856
1419.48099,1.02909
1417.99120,1.07275
1416.50141,1.01683
1415.01162,0.95004
1413.52183,0.91382
1412.03204,0.85851
1410.54226,0.80932
1409.05247,0.72962
1407.56268,0.65871
1406.07289,0.62261
1404.58310,0.57910
1403.09331,0.53562
1401.60353,0.48473
1400.11374,0.42961
1398.62395,0.38886
1397.13416,0.33883
1395.64437,0.28458
1394.15458,0.24098
1392.66479,0.21467
1391.17501,0.17431
1389.68522,0.12945
1388.19543,0.10613
1386.70564,0.09373
1385.21585,0.08136
1383.72606,0.04590
1382.23628,0.02693
1380.74649,0.03242
1379.25670,0.01855
1377.76691,0.00762
1376.27712,0.00124
1374.78733,0.00125
1373.29755,0.00500
1371.80776,0.00267
1370.31797,0.00275
1368.82818,0.01171
1367.33839,0.02069
1365.84860,0.01868
1364.35881,0.01642
1362.86903,0.04261
1361.37924,0.04863
1359.88945,0.08682
1358.39966,0.10379
1356.90987,0.12795
1355.42008,0.18879
1353.93030,0.23850
1352.44051,0.27615
1350.95072,0.31382
1349.46093,0.39016
1347.97114,0.44342
1346.48135,0.52672
1344.99156,0.60633
1343.50178,0.68808
1342.01199,0.70372
1340.52220,0.76109
1339.03241,0.82618
1337.54262,0.85783
1336.05283,0.89549
1334.56305,0.93316
1333.07326,0.98561
1331.58347,0.96689
1330.09368,0.95670
1328.60389,0.91492
1327.11410,0.90744
1325.62432,0.90449
1324.13453,0.87872
1322.64474,0.85112
1321.15495,0.77653
1319.66516,0.72973
1318.17537,0.68294
1316.68558,0.67563
1315.19580,0.65134
1313.70601,0.57076
1312.21622,0.53643
1310.72643,0.51115
1309.23664,0.49891
1307.74685,0.46491
1306.25707,0.41155
1304.76728,0.39315
1303.27749,0.37476
1301.78770,0.31962
1300.29791,0.29478
1298.80812,0.25030
1297.31834,0.21515
1295.82855,0.18746
1294.33876,0.16352
1292.84897,0.12950
1291.35918,0.10029
1289.86939,0.09382
1288.37960,0.08737
1286.88982,0.10551
1285.40003,0.10084
1283.91024,0.09087
1282.42045,0.07562
1280.93066,0.07686
1279.44087,0.04121
1277.95109,0.02842
1276.46130,0.03877
1274.97151,0.03666
1273.48172,0.03457
1271.99193,0.05004
1270.50214,0.04162
1269.01235,0.02341
1267.52257,0.02221
1266.03278,0.03140
1264.54299,0.01246
1263.05320,0.02622
1261.56341,0.03150
1260.07362,0.03680
1258.58384,0.02965
1257.09405,0.01800
1255.60426,0.00718
1254.11447,0.00275
1252.62468,0.01009
1251.13489,0.02570
1249.64511,0.01582
1248.15532,0.02510
1246.66553,0.02218
1245.17574,0.01929
1243.68595,0.01031
1242.19616,0.01171
1240.70637,0.01288
1239.21659,0.00477
1237.72680,0.03308
1236.23701,0.02927
1234.74722,0.02362
1233.25743,0.01442
1231.76764,0.00524
1230.27786,0.01853
1228.78807,0.01165
1227.29828,0.01038
1225.80849,0.02321
1224.31870,0.02358
1222.82891,0.03115
1221.33912,0.04007
1219.84934,0.03760
1218.35955,0.03514
1216.86976,0.03192
1215.37997,0.06166
1213.89018,0.07150
1212.40039,0.06914
1210.91061,0.08195
1209.42082,0.07566
1207.93103,0.07498
1206.44124,0.07432
1204.95145,0.07607
1203.46166,0.06165
1201.97188,0.08177
1200.48209,0.08334
1198.99230,0.05331
1197.50251,0.06024
1196.01272,0.05815
1194.52293,0.04892
1193.03314,0.03972
1191.54336,0.03983
1190.05357,0.02324
1188.56378,0.02393
1187.07399,0.04510
1185.58420,0.02752
1184.09441,0.03626
1182.60463,0.02656
1181.11484,0.01689
1179.62505,0.02623
1178.13526,0.02338
1176.64547,0.00275
1175.15568,0.00679
1173.66589,0.01537
1172.17611,0.02345
1170.68632,0.02278
1169.19653,0.02214
1167.70674,0.04623
1166.21695,0.02571
1164.72716,0.04161
1163.23738,0.04186
1161.74759,0.04480
1160.25780,0.08255
1158.76801,0.08806
1157.27822,0.09359
1155.78843,0.10167
1154.29865,0.10233
1152.80886,0.10409
1151.31907,0.11755
1149.82928,0.13981
1148.33949,0.15173
1146.84970,0.14534
1145.35991,0.13898
1143.87013,0.12760
1142.38034,0.13723
1140.89055,0.17690
1139.40076,0.19109
1137.91097,0.19096
1136.42118,0.21583
1134.93140,0.22598
1133.44161,0.23615
1131.95182,0.25047
1130.46203,0.27543
1128.97224,0.27147
1127.48245,0.23990
1125.99266,0.26468
1124.50288,0.25069
1123.01309,0.27312
1121.52330,0.29558
1120.03351,0.29282
1118.54372,0.29860
1117.05393,0.26428
1115.56415,0.26851
1114.07436,0.25310
1112.58457,0.26083
1111.09478,0.26858
1109.60499,0.24528
1108.11520,0.25920
1106.62542,0.27552
1105.13563,0.27089
1103.64584,0.24530
1102.15605,0.24815
1100.66626,0.24904
1099.17647,0.24995
1097.68668,0.24251
1096.19690,0.23431
1094.70711,0.21550
1093.21732,0.20682
1091.72753,0.22472
1090.23774,0.22803
1088.74795,0.23137
1087.25817,0.21800
1085.76838,0.21263
1084.27859,0.20727
1082.78880,0.22957
1081.29901,0.22905
1079.80922,0.23174
1078.31943,0.23073
1076.82965,0.22976
1075.33986,0.26174
1073.85007,0.25363
1072.36028,0.26574
1070.87049,0.29833
1069.38070,0.32244
1067.89092,0.34365
1066.40113,0.36489
1064.91134,0.41298
1063.42155,0.50253
1061.93176,0.61893
1060.44197,0.71730
1058.95219,0.77664
1057.46240,0.84597
1055.97261,0.91532
1054.48282,0.99201
1052.99303,1.04295
1051.50324,1.06177
1050.01345,1.05274
1048.52367,1.09154
1047.03388,1.07657
1045.54409,1.06163
1044.05430,0.99505
1042.56451,0.94816
1041.07472,0.86490
1039.58494,0.74925
1038.09515,0.66285
1036.60536,0.62588
1035.11557,0.58894
1033.62578,0.53103
1032.13599,0.47740
1030.64620,0.40254
1029.15642,0.31496
1027.66663,0.29753
1026.17684,0.28012
1024.68705,0.22555
1023.19726,0.19384
1021.70747,0.18527
1020.21769,0.18656
1018.72790,0.15253
1017.23811,0.14258
1015.74832,0.13264
1014.25853,0.13960
1012.76874,0.13250
1011.27896,0.11853
1009.78917,0.08705
1008.29938,0.09463
1006.80959,0.08604
1005.31980,0.07747
1003.83001,0.02909
1002.34022,0.03439
1000.85044,0.04156
999.36065,0.04213
997.87086,0.04444
996.38107,0.04678
994.89128,0.05857
993.40149,0.07676
991.91171,0.09391
990.42192,0.10472
988.93213,0.12484
987.44234,0.13423
985.95255,0.14365
984.46276,0.13038
982.97297,0.12590
981.48319,0.09807
979.99340,0.08912
978.50361,0.07197
977.01382,0.05484
975.52403,0.05048
974.03424,0.03499
972.54446,0.03812
971.05467,0.01365
969.56488,0.00275
968.07509,0.00549
966.58530,0.00824
965.09551,0.01063
963.60573,0.02552
962.11594,0.01228
960.62615,0.02031
959.13636,0.01084
957.64657,0.00140
956.15678,0.00704
954.66699,0.00102
953.17721,0.02681
951.68742,0.04625
950.19763,0.04885
948.70784,0.05148
947.21805,0.06143
945.72826,0.05680
944.23848,0.08061
942.74869,0.09170
941.25890,0.09936
939.76911,0.12976
938.27932,0.16018
936.78953,0.15649
935.29974,0.17275
933.80996,0.19488
932.32017,0.21358
930.83038,0.21995
929.34059,0.22634
927.85080,0.27938
926.36101,0.30402
924.87123,0.33745
923.38144,0.35789
921.89165,0.40053
920.40186,0.44320
918.91207,0.53914
917.42228,0.68478
915.93250,0.85170
914.44271,1.03033
912.95292,1.12969
911.46313,1.22908
909.97334,1.45347
908.48355,1.66088
906.99376,1.82263
905.50398,1.93393
904.01419,1.96266
902.52440,1.99141
901.03461,2.00000
899.54482,1.98790
898.05503,1.85709
896.56525,1.65273
895.07546,1.51613
893.58567,1.37955
892.09588,1.12028
890.60609,0.88787
889.11630,0.67672
887.62651,0.51156
886.13673,0.44337
884.64694,0.37520
883.15715,0.27465
881.66736,0.19378
880.17757,0.13684
878.68778,0.12030
877.19800,0.10378
875.70821,0.07667
874.21842,0.05276
872.72863,0.02755
871.23884,0.05071
869.74905,0.04813
868.25927,0.04557
866.76948,0.04622
865.27969,0.03442
863.78990,0.05186
862.30011,0.06480
860.81032,0.07631
859.32053,0.08785
857.83075,0.09901
856.34096,0.12055
854.85117,0.14238
853.36138,0.14830
851.87159,0.16275
850.38180,0.17722
848.89202,0.19836
847.40223,0.24209
845.91244,0.23486
844.42265,0.24597
842.93286,0.25711
841.44307,0.26509
839.95329,0.29354
838.46350,0.28882
836.97371,0.33034
835.48392,0.33509
833.99413,0.33987
832.50434,0.32808
831.01455,0.30940
829.52477,0.28995
828.03498,0.23998
826.54519,0.23227
825.05540,0.22458
823.56561,0.20469
822.07582,0.20290
820.58604,0.20936
819.09625,0.20376
817.60646,0.19818
816.11667,0.17630
814.62688,0.15948
813.13709,0.17191
811.64730,0.19605
810.15752,0.18037
808.66773,0.16472
807.17794,0.18734
805.68815,0.16403
804.19836,0.19387
802.70857,0.20647
801.21879,0.21910
799.72900,0.18978
798.23921,0.17589
796.74942,0.16867
795.25963,0.17289
793.76984,0.17714
792.28006,0.17822
790.79027,0.19181
789.30048,0.21632
787.81069,0.26635
786.32090,0.27922
784.83111,0.29212
783.34132,0.31168
781.85154,0.33524
780.36175,0.39549
778.87196,0.41765
777.38217,0.43983
775.89238,0.47545
774.40259,0.49675
772.91281,0.48699
771.42302,0.47288
769.93323,0.45880
768.44344,0.40503
766.95365,0.30188
765.46386,0.29012
763.97407,0.25130
762.48429,0.22392
760.99450,0.19657
759.50471,0.16314
758.01492,0.14407
756.52513,0.12130
755.03534,0.12207
753.54556,0.12287
752.05577,0.07919
750.56598,0.08628
749.07619,0.06789
747.58640,0.06705
746.09661,0.06624
744.60683,0.05377
743.11704,0.03627
741.62725,0.03554
740.13746,0.02898
738.64767,0.02245
737.15788,0.03613
735.66809,0.00308
734.17831,0.02372
732.68852,0.01954
731.19873,0.01539
729.70894,0.02388
728.21915,0.01619
726.72936,0.00614
725.23958,0.00275
723.74979,0.01116
722.26000,0.01958
720.77021,0.01555
719.28042,0.02297
717.79063,0.02085
716.30084,0.01105
714.81106,0.00127
713.32127,0.00852
711.83148,0.01898
710.34169,0.02388
708.85190,0.02403
707.36211,0.02421
705.87233,0.02733
704.38254,0.05544
702.89275,0.05038
701.40296,0.05331
699.91317,0.05626
698.42338,0.06349
696.93360,0.08030
695.44381,0.10139
693.95402,0.11546
692.46423,0.12956
690.97444,0.13293
689.48465,0.14668
687.99486,0.14637
686.50508,0.15938
685.01529,0.17240
683.52550,0.21175
682.03571,0.23226
680.54592,0.23527
679.05613,0.25397
677.56635,0.27270
676.07656,0.27525
674.58677,0.25657
673.09698,0.20419
671.60719,0.19552
670.11740,0.18688
668.62761,0.18849
667.13783,0.17711
665.64804,0.15938
664.15825,0.14167
662.66846,0.11708
661.17867,0.07924
659.68888,0.07090
658.19910,0.05767
656.70931,0.04447
655.21952,0.02877
653.72973,0.03727
652.23994,0.05588
650.75015,0.05486
649.26037,0.05387
647.77058,0.04679
646.28079,0.04638
644.79100,0.04227
643.30121,0.03420
641.81142,0.02616
640.32163,0.02000
638.83185,0.03167
637.34206,0.00935
635.85227,0.01502
634.36248,0.02072
632.87269,0.01860
631.38290,0.01810
629.89312,0.00275
628.40333,0.00958
626.91354,0.01643
625.42375,0.01055
623.93396,0.03179
622.44417,0.03447
620.95438,0.03717
619.46460,0.03909
617.97481,0.03892
616.48502,0.03638
614.99523,0.06388
613.50544,0.09140
612.01565,0.13648
610.52587,0.17600
609.03608,0.18607
607.54629,0.20904
606.05650,0.23204
604.56671,0.26422
603.07692,0.29936
601.58714,0.31844
600.09735,0.33755
598.60756,0.38896
597.11777,0.40347
595.62798,0.41881
594.13819,0.40030
592.64840,0.38182
591.15862,0.35340
589.66883,0.30561
588.17904,0.27804
586.68925,0.26205
585.19946,0.24608
583.70967,0.17953
582.21989,0.12417
580.73010,0.10376
579.24031,0.08337
577.75052,0.06261
576.26073,0.05462
574.77094,0.02674
573.28115,0.02797
571.79137,0.02922
570.30158,0.03408
568.81179,0.03710
567.32200,0.05715
565.83221,0.07723
564.34242,0.11273
562.85264,0.12197
561.36285,0.15274
559.87306,0.15804
558.38327,0.16336
556.89348,0.17535
555.40369,0.17886
553.91391,0.18758
552.42412,0.19632
550.93433,0.20840
549.44454,0.19581
547.95475,0.21060
546.46496,0.21440
544.97517,0.21821
543.48539,0.23812
541.99560,0.25700
540.50581,0.29343
539.01602,0.32988
537.52623,0.36104
536.03644,0.38559
534.54666,0.40698
533.05687,0.43158
531.56708,0.45620
530.07729,0.50104
528.58750,0.56077
527.09771,0.57099
525.60792,0.58123
524.11814,0.63414
522.62835,0.64563
521.13856,0.76259
519.64877,0.78236
518.15898,0.80216
516.66919,0.85624
515.17941,0.86547
513.68962,0.87431
512.19983,0.88319
510.71004,0.82130
509.22025,0.76156
507.73046,0.69175
506.24068,0.64933
504.75089,0.60692
503.26110,0.46893
501.77131,0.39258
500.28152,0.34574
498.79173,0.29892
497.30194,0.23061
495.81216,0.21545
494.32237,0.18836
492.83258,0.16129
491.34279,0.08937
489.85300,0.08413
488.36321,0.03828
486.87343,0.05076
485.38364,0.06326
483.89385,0.09823
482.40406,0.11517
480.91427,0.12176
479.42448,0.12839
477.93469,0.13929
476.44491,0.15100
474.95512,0.18320
473.46533,0.21542
471.97554,0.22297
470.48575,0.21035
468.99596,0.20599
467.50618,0.21121
466.01639,0.21646
464.52660,0.15587
463.03681,0.13195
461.54702,0.12373
460.05723,0.11553
458.56745,0.07575
457.07766,0.06309
455.58787,0.04859
454.09808,0.03411
452.60829,0.03693
451.11850,0.03472
449.62871,0.02723
448.13893,0.01976
446.64914,0.00275
445.15935,0.01814
443.66956,0.04657
442.17977,0.03916
440.68998,0.03178
439.20020,0.08152
437.71041,0.03993
436.22062,0.04603
434.73083,0.05216
433.24104,0.04623
431.75125,0.06157
430.26146,0.05755
428.77168,0.05355
427.28189,0.05382
425.79210,0.04164
424.30231,0.03918
422.81252,0.03674
421.32273,0.05491
419.83295,0.05159
418.34316,0.04099
416.85337,0.03041
415.36358,0.04283
413.87379,0.05156
412.38400,0.05301
410.89422,0.05449
409.40443,0.05400
407.91464,0.05114
406.42485,0.05229
404.93506,0.04497
403.44527,0.03767
401.95548,0.05190
400.46570,0.03961
398.97591,0.03729
397.48612,0.03501
395.99633,0.03845
394.50654,0.03608
393.01675,0.03041
391.52697,0.02477
390.03718,0.03120
388.54739,0.05650
387.05760,0.04744
385.56781,0.03840
384.07802,0.02288
382.58824,0.00472
381.09845,0.00373
379.60866,0.00275
378.11887,0.03045
376.62908,0.03479
375.13929,0.03651
373.64950,0.03825
372.15972,0.04691
370.66993,0.03436
369.18014,0.03719
367.69035,0.04005
366.20056,0.04200
364.71077,0.06842
363.22099,0.05807
361.73120,0.04775
360.24141,0.06441
358.75162,0.04125
357.26183,0.04707
355.77204,0.05291
354.28225,0.06436
352.79247,0.10133
351.30268,0.11083
349.81289,0.12036
348.32310,0.11862
346.83331,0.11452
345.34352,0.08906
343.85374,0.06363
342.36395,0.06597
340.87416,0.04869
339.38437,0.04617
337.89458,0.04367
336.40479,0.03257
334.91501,0.03663
333.42522,0.02797
331.93543,0.01933
330.44564,0.00275
328.95585,0.02503
327.46606,0.04534
325.97627,0.06567
324.48649,0.04978
322.99670,0.04506
321.50691,0.04222
320.01712,0.03942
318.52733,0.05230
317.03754,0.06920
315.54776,0.08174
314.05797,0.09430
312.56818,0.13836
311.07839,0.13596
309.58860,0.12549
308.09881,0.11504
306.60902,0.09014
305.11924,0.07563
303.62945,0.04972
302.13966,0.02383
300.64987,0.00275
299.16008,0.00275
