1778.52000,0.02046
1777.03021,0.01051
1775.54042,0.01783
1774.05063,0.01577
1772.56085,0.01295
1771.07106,0.02087
1769.58127,0.02228
1768.09148,0.02320
1766.60169,0.01446
1765.11190,0.01594
1763.62212,0.00125
1762.13233,0.01532
1760.64254,0.01139
1759.15275,0.02735
1757.66296,0.01379
1756.17317,0.00000
1754.68339,0.00923
1753.19360,0.00307
1751.70381,0.01104
1750.21402,0.01355
1748.72423,0.00877
1747.23444,0.00871
1745.74465,0.00633
1744.25487,0.01442
1742.76508,0.00582
1741.27529,0.00324
1739.78550,0.00148
1738.29571,0.00131
1736.80592,0.02275
1735.31614,0.02253
1733.82635,0.01762
1732.33656,0.01379
1730.84677,0.01756
1729.35698,0.01089
1727.86719,0.01889
1726.37740,0.01280
1724.88762,0.00125
1723.39783,0.00826
1721.90804,0.01059
1720.41825,0.01138
1718.92846,0.00905
1717.43867,0.00884
1715.94889,0.01205
1714.45910,0.01921
1712.96931,0.00836
1711.47952,0.00772
1709.98973,0.01129
1708.49994,0.01097
1707.01016,0.01014
1705.52037,0.00934
1704.03058,0.00125
1702.54079,0.01078
1701.05100,0.00622
1699.56121,0.01293
1698.07142,0.00946
1696.58164,0.00707
1695.09185,0.01071
1693.60206,0.02561
1692.11227,0.01467
1690.62248,0.01760
1689.13269,0.02630
1687.64291,0.01883
1686.15312,0.02105
1684.66333,0.00865
1683.17354,0.01772
1681.68375,0.01687
1680.19396,0.01082
1678.70417,0.01761
1677.21439,0.03356
1675.72460,0.04013
1674.23481,0.03836
1672.74502,0.03191
1671.25523,0.03438
1669.76544,0.04993
1668.27566,0.05558
1666.78587,0.04922
1665.29608,0.05361
1663.80629,0.05097
1662.31650,0.05932
1660.82671,0.06143
1659.33693,0.07245
1657.84714,0.06520
1656.35735,0.06346
1654.86756,0.05861
1653.37777,0.05195
1651.88798,0.04846
1650.39819,0.05073
1648.90841,0.06689
1647.41862,0.04491
1645.92883,0.05614
1644.43904,0.06741
1642.94925,0.06353
1641.45946,0.06047
1639.96968,0.07285
1638.47989,0.07035
1636.99010,0.07363
1635.50031,0.06518
1634.01052,0.06302
1632.52073,0.06245
1631.03094,0.07994
1629.54116,0.10347
1628.05137,0.09435
1626.56158,0.08395
1625.07179,0.06625
1623.58200,0.04962
1622.09221,0.05681
1620.60243,0.04363
1619.11264,0.07830
1617.62285,0.06830
1616.13306,0.07245
1614.64327,0.08132
1613.15348,0.08159
1611.66370,0.08397
1610.17391,0.08638
1608.68412,0.08202
1607.19433,0.09337
1605.70454,0.09820
1604.21475,0.09130
1602.72496,0.08442
1601.23518,0.07208
1599.74539,0.08720
1598.25560,0.07909
1596.76581,0.07466
1595.27602,0.08098
1593.78623,0.09123
1592.29645,0.07956
1590.80666,0.08019
1589.31687,0.07615
1587.82708,0.07056
1586.33729,0.07754
1584.84750,0.08794
1583.35771,0.09784
1581.86793,0.09392
1580.37814,0.08139
1578.88835,0.07647
1577.39856,0.07236
1575.90877,0.07062
1574.41898,0.05505
1572.92920,0.06225
1571.43941,0.05850
1569.94962,0.05307
1568.45983,0.04766
1566.97004,0.04137
1565.48025,0.04712
1563.99047,0.02493
1562.50068,0.02289
1561.01089,0.03655
1559.52110,0.03534
1558.03131,0.03024
1556.54152,0.02594
1555.05173,0.01827
1553.56195,0.01794
1552.07216,0.02234
1550.58237,0.03722
1549.09258,0.01893
1547.60279,0.01426
1546.11300,0.00125
1544.62322,0.01719
1543.13343,0.03315
1541.64364,0.01202
1540.15385,0.01209
1538.66406,0.01218
1537.17427,0.00550
1535.68448,0.02054
1534.19470,0.02254
1532.70491,0.00077
1531.21512,0.00125
1529.72533,0.01510
1528.23554,0.00650
1526.74575,0.02170
1525.25597,0.01158
1523.76618,0.02501
1522.27639,0.04656
1520.78660,0.04487
1519.29681,0.04426
1517.80702,0.04366
1516.31724,0.04467
1514.82745,0.04700
1513.33766,0.04374
1511.84787,0.04050
1510.35808,0.05492
1508.86829,0.05108
1507.37850,0.06268
1505.88872,0.05052
1504.39893,0.06348
1502.90914,0.05555
1501.41935,0.06176
1499.92956,0.05362
1498.43977,0.06719
1496.94999,0.08236
1495.46020,0.09050
1493.97041,0.08167
1492.48062,0.09822
1490.99083,0.10094
1489.50104,0.12929
1488.01125,0.12644
1486.52147,0.12362
1485.03168,0.13820
1483.54189,0.13842
1482.05210,0.16377
1480.56231,0.19018
1479.07252,0.18473
1477.58274,0.19707
1476.09295,0.19742
1474.60316,0.20616
1473.11337,0.22381
1471.62358,0.22214
1470.13379,0.22703
1468.64401,0.22462
1467.15422,0.23897
1465.66443,0.24119
1464.17464,0.24343
1462.68485,0.28058
1461.19506,0.33292
1459.70527,0.39705
1458.21549,0.44029
1456.72570,0.47206
1455.23591,0.51953
1453.74612,0.58140
1452.25633,0.64852
1450.76654,0.68796
1449.27676,0.67045
1447.78697,0.67962
1446.29718,0.65197
1444.80739,0.65100
1443.31760,0.65005
1441.82781,0.60470
1440.33802,0.56015
1438.84824,0.50021
1437.35845,0.50145
1435.86866,0.50063
1434.37887,0.50610
1432.88908,0.55785
1431.39929,0.60440
1429.90951,0.64053
1428.41972,0.69680
1426.92993,0.75963
1425.44014,0.80445
1423.95035,0.83570
1422.46056,0.86698
1420.97078,0.90821
1419.48099,0.93588
1417.99120,0.95834
1416.50141,0.96619
1415.01162,0.93513
1413.52183,0.88815
1412.03204,0.83753
1410.54226,0.77465
1409.05247,0.66658
1407.56268,0.57108
1406.07289,0.52735
1404.58310,0.50783
1403.09331,0.48833
1401.60353,0.42638
1400.11374,0.37935
1398.62395,0.34777
1397.13416,0.32666
1395.64437,0.25540
1394.15458,0.20690
1392.66479,0.18169
1391.17501,0.15101
1389.68522,0.12742
1388.19543,0.09522
1386.70564,0.09219
1385.21585,0.08918
1383.72606,0.07640
1382.23628,0.05083
1380.74649,0.03208
1379.25670,0.03009
1377.76691,0.01688
1376.27712,0.01310
1374.78733,0.00125
1373.29755,0.01078
1371.80776,0.00674
1370.31797,0.01554
1368.82818,0.02162
1367.33839,0.02772
1365.84860,0.02665
1364.35881,0.02875
1362.86903,0.04185
1361.37924,0.04243
1359.88945,0.07988
1358.39966,0.10456
1356.90987,0.12585
1355.42008,0.19736
1353.93030,0.25085
1352.44051,0.28241
1350.95072,0.31400
1349.46093,0.39658
1347.97114,0.48258
1346.48135,0.52757
1344.99156,0.59009
1343.50178,0.66806
1342.01199,0.71574
1340.52220,0.77442
1339.03241,0.79627
1337.54262,0.86336
1336.05283,0.87990
1334.56305,0.89646
1333.07326,0.92808
1331.58347,0.95319
1330.09368,0.93964
1328.60389,0.87018
1327.11410,0.82454
1325.62432,0.83014
1324.13453,0.80597
1322.64474,0.77948
1321.15495,0.76398
1319.66516,0.73022
1318.17537,0.69648
1316.68558,0.65283
1315.19580,0.57392
1313.70601,0.52562
1312.21622,0.51654
1310.72643,0.48606
1309.23664,0.45325
1307.74685,0.41158
1306.25707,0.37594
1304.76728,0.35104
1303.27749,0.32617
1301.78770,0.28538
1300.29791,0.24905
1298.80812,0.24516
1297.31834,0.20261
1295.82855,0.15120
1294.33876,0.13327
1292.84897,0.10465
1291.35918,0.08363
1289.86939,0.07949
1288.37960,0.07537
1286.88982,0.06592
1285.40003,0.07088
1283.91024,0.07585
1282.42045,0.08869
1280.93066,0.06157
1279.44087,0.04832
1277.95109,0.04686
1276.46130,0.03392
1274.97151,0.02794
1273.48172,0.02197
1271.99193,0.03158
1270.50214,0.02397
1269.01235,0.02841
1267.52257,0.03182
1266.03278,0.02820
1264.54299,0.01911
1263.05320,0.00692
1261.56341,0.00925
1260.07362,0.01161
1258.58384,0.00341
1257.09405,0.02241
1255.60426,0.00772
1254.11447,0.00142
1252.62468,0.00220
1251.13489,0.02182
1249.64511,0.01768
1248.15532,0.02428
1246.66553,0.02464
1245.17574,0.02502
1243.68595,0.03405
1242.19616,0.01670
1240.70637,0.01715
1239.21659,0.03461
1237.72680,0.03616
1236.23701,0.03067
1234.74722,0.04167
1233.25743,0.03362
1231.76764,0.02559
1230.27786,0.03249
1228.78807,0.00125
1227.29828,0.01620
1225.80849,0.03327
1224.31870,0.03573
1222.82891,0.04657
1221.33912,0.05248
1219.84934,0.05279
1218.35955,0.05312
1216.86976,0.06511
1215.37997,0.06824
1213.89018,0.05884
1212.40039,0.06175
1210.91061,0.06495
1209.42082,0.05850
1207.93103,0.05875
1206.44124,0.05901
1204.95145,0.04271
1203.46166,0.05988
1201.97188,0.04362
1200.48209,0.05300
1198.99230,0.05822
1197.50251,0.05197
1196.01272,0.06299
1194.52293,0.05482
1193.03314,0.04668
1191.54336,0.05412
1190.05357,0.04642
1188.56378,0.01287
1187.07399,0.02586
1185.58420,0.00125
1184.09441,0.02230
1182.60463,0.02574
1181.11484,0.02920
1179.62505,0.01871
1178.13526,0.03960
1176.64547,0.02261
1175.15568,0.01454
1173.66589,0.02087
1172.17611,0.02409
1170.68632,0.01661
1169.19653,0.00916
1167.70674,0.00983
1166.21695,0.03484
1164.72716,0.03347
1163.23738,0.01827
1161.74759,0.03812
1160.25780,0.05852
1158.76801,0.06483
1157.27822,0.07116
1155.78843,0.08327
1154.29865,0.09357
1152.80886,0.09344
1151.31907,0.08942
1149.82928,0.10240
1148.33949,0.11725
1146.84970,0.12871
1145.35991,0.14021
1143.87013,0.12507
1142.38034,0.14889
1140.89055,0.15392
1139.40076,0.16969
1137.91097,0.18496
1136.42118,0.19190
1134.93140,0.20813
1133.44161,0.22439
1131.95182,0.21781
1130.46203,0.27554
1128.97224,0.25725
1127.48245,0.26720
1125.99266,0.22883
1124.50288,0.24014
1123.01309,0.25448
1121.52330,0.26884
1120.03351,0.27186
1118.54372,0.27124
1117.05393,0.27431
1115.56415,0.28655
1114.07436,0.26300
1112.58457,0.24863
1111.09478,0.23428
1109.60499,0.22702
1108.11520,0.26029
1106.62542,0.21543
1105.13563,0.25894
1103.64584,0.22851
1102.15605,0.22633
1100.66626,0.22745
1099.17647,0.22858
1097.68668,0.22177
1096.19690,0.21708
1094.70711,0.21162
1093.21732,0.16699
1091.72753,0.19608
1090.23774,0.18887
1088.74795,0.18168
1087.25817,0.18131
1085.76838,0.17835
1084.27859,0.18065
1082.78880,0.17538
1081.29901,0.17877
1079.80922,0.18506
1078.31943,0.17961
1076.82965,0.17418
1075.33986,0.17401
1073.85007,0.18065
1072.36028,0.19412
1070.87049,0.21858
1069.38070,0.24307
1067.89092,0.26184
1066.40113,0.28063
1064.91134,0.30937
1063.42155,0.37551
1061.93176,0.46285
1060.44197,0.55700
1058.95219,0.60074
1057.46240,0.61994
1055.97261,0.63916
1054.48282,0.71303
1052.99303,0.77829
1051.50324,0.80229
1050.01345,0.78502
1048.52367,0.77953
1047.03388,0.78805
1045.54409,0.79659
1044.05430,0.75249
1042.56451,0.71522
1041.07472,0.66072
1039.58494,0.62610
1038.09515,0.56694
1036.60536,0.53329
1035.11557,0.49967
1033.62578,0.47403
1032.13599,0.39772
1030.64620,0.36953
1029.15642,0.29954
1027.66663,0.27296
1026.17684,0.24640
1024.68705,0.20733
1023.19726,0.18709
1021.70747,0.16244
1020.21769,0.13964
1018.72790,0.12418
1017.23811,0.11985
1015.74832,0.11555
1014.25853,0.10200
1012.76874,0.08977
1011.27896,0.10659
1009.78917,0.10094
1008.29938,0.07834
1006.80959,0.06347
1005.31980,0.04862
1003.83001,0.01171
1002.34022,0.01246
1000.85044,0.01402
999.36065,0.03364
997.87086,0.03551
996.38107,0.03741
994.89128,0.04481
993.40149,0.06453
991.91171,0.05526
990.42192,0.07319
988.93213,0.08645
987.44234,0.08496
985.95255,0.08349
984.46276,0.08532
982.97297,0.08587
981.48319,0.04592
979.99340,0.04469
978.50361,0.04517
977.01382,0.04568
975.52403,0.05288
974.03424,0.02038
972.54446,0.00202
971.05467,0.00432
969.56488,0.02077
968.07509,0.01698
966.58530,0.01322
965.09551,0.00125
963.60573,0.00846
962.11594,0.01570
960.62615,0.01773
959.13636,0.02894
957.64657,0.04017
956.15678,0.00726
954.66699,0.03317
953.17721,0.03533
951.68742,0.02314
950.19763,0.03410
948.70784,0.04508
947.21805,0.05700
945.72826,0.07313
944.23848,0.06603
942.74869,0.08325
941.25890,0.10964
939.76911,0.11620
938.27932,0.12278
936.78953,0.15552
935.29974,0.17757
933.80996,0.18605
932.32017,0.23193
930.83038,0.23524
929.34059,0.23857
927.85080,0.27642
926.36101,0.29077
924.87123,0.28659
923.38144,0.31537
921.89165,0.34757
920.40186,0.37979
918.91207,0.47842
917.42228,0.61079
915.93250,0.77063
914.44271,0.96813
912.95292,1.07221
911.46313,1.17633
909.97334,1.39611
908.48355,1.60207
906.99376,1.80570
905.50398,1.88260
904.01419,1.91299
902.52440,1.94342
901.03461,2.00000
899.54482,1.96226
898.05503,1.84038
896.56525,1.65215
895.07546,1.53254
893.58567,1.41296
892.09588,1.11477
890.60609,0.86913
889.11630,0.65200
887.62651,0.47123
886.13673,0.41201
884.64694,0.35282
883.15715,0.24713
881.66736,0.17466
880.17757,0.11371
878.68778,0.10022
877.19800,0.08675
875.70821,0.05881
874.21842,0.04108
872.72863,0.00900
871.23884,0.01537
869.74905,0.00829
868.25927,0.00125
866.76948,0.00597
865.27969,0.01464
863.78990,0.01758
862.30011,0.02420
860.81032,0.03529
859.32053,0.04641
857.83075,0.07663
856.34096,0.08622
854.85117,0.06814
853.36138,0.09294
851.87159,0.09085
850.38180,0.08878
848.89202,0.11131
847.40223,0.13516
845.91244,0.15643
844.42265,0.15890
842.93286,0.16140
841.44307,0.15686
839.95329,0.15522
838.46350,0.19517
836.97371,0.19985
835.48392,0.19097
833.99413,0.18211
832.50434,0.21352
831.01455,0.19452
829.52477,0.17790
828.03498,0.15999
826.54519,0.14289
825.05540,0.12581
823.56561,0.12679
822.07582,0.09696
820.58604,0.08727
819.09625,0.08885
817.60646,0.09045
816.11667,0.09548
814.62688,0.09504
813.13709,0.08521
811.64730,0.08430
810.15752,0.09673
808.66773,0.10920
807.17794,0.09137
805.68815,0.09473
804.19836,0.08636
802.70857,0.08938
801.21879,0.09242
799.72900,0.09327
798.23921,0.08186
796.74942,0.08641
795.25963,0.09295
793.76984,0.09951
792.28006,0.11355
790.79027,0.11245
789.30048,0.10876
787.81069,0.12915
786.32090,0.15099
784.83111,0.17286
783.34132,0.21108
781.85154,0.23052
780.36175,0.23508
778.87196,0.25626
777.38217,0.27746
775.89238,0.32025
774.40259,0.31289
772.91281,0.30163
771.42302,0.29235
769.93323,0.28310
768.44344,0.25152
766.95365,0.20638
765.46386,0.18740
763.97407,0.15485
762.48429,0.14141
760.99450,0.12799
759.50471,0.10571
758.01492,0.07744
756.52513,0.06958
755.03534,0.07638
753.54556,0.08321
752.05577,0.04981
750.56598,0.04936
749.07619,0.04189
747.58640,0.04424
746.09661,0.04661
744.60683,0.03868
743.11704,0.04228
741.62725,0.03833
740.13746,0.02747
738.64767,0.01663
737.15788,0.00125
735.66809,0.01512
734.17831,0.00706
732.68852,0.00674
731.19873,0.00644
729.70894,0.01205
728.21915,0.01506
726.72936,0.01601
725.23958,0.00418
723.74979,0.00987
722.26000,0.01559
720.77021,0.00721
719.28042,0.02369
717.79063,0.00282
716.30084,0.01085
714.81106,0.01891
713.32127,0.00125
711.83148,0.02857
710.34169,0.02769
708.85190,0.02043
707.36211,0.01320
705.87233,0.02886
704.38254,0.02206
702.89275,0.04613
701.40296,0.04527
699.91317,0.04443
698.42338,0.08948
696.93360,0.06869
695.44381,0.09210
693.95402,0.10247
692.46423,0.11285
690.97444,0.14365
689.48465,0.16428
687.99486,0.17239
686.50508,0.18275
685.01529,0.19312
683.52550,0.22300
682.03571,0.24558
680.54592,0.24022
679.05613,0.24913
677.56635,0.25806
676.07656,0.27891
674.58677,0.26789
673.09698,0.24697
671.60719,0.22176
670.11740,0.19658
668.62761,0.18749
667.13783,0.15700
665.64804,0.14260
664.15825,0.12823
662.66846,0.10774
661.17867,0.08231
659.68888,0.06291
658.19910,0.05713
656.70931,0.05138
655.21952,0.04773
653.72973,0.06947
652.23994,0.06849
650.75015,0.06283
649.26037,0.05719
647.77058,0.05890
646.28079,0.05723
644.79100,0.06840
643.30121,0.05802
641.81142,0.04768
640.32163,0.04402
638.83185,0.03358
637.34206,0.03154
635.85227,0.02076
634.36248,0.01001
632.87269,0.00125
631.38290,0.03859
629.89312,0.01219
628.40333,0.02070
626.91354,0.02924
625.42375,0.02853
623.93396,0.02208
622.44417,0.02913
620.95438,0.03619
619.46460,0.05465
617.97481,0.06869
616.48502,0.07178
614.99523,0.07895
613.50544,0.08613
612.01565,0.13895
610.52587,0.16252
609.03608,0.20546
607.54629,0.20778
606.05650,0.21012
604.56671,0.26959
603.07692,0.32935
601.58714,0.34458
600.09735,0.35982
598.60756,0.37496
597.11777,0.40372
595.62798,0.41159
594.13819,0.38459
592.64840,0.35762
591.15862,0.34335
589.66883,0.30872
588.17904,0.24379
586.68925,0.23325
585.19946,0.22273
583.70967,0.18402
582.21989,0.11892
580.73010,0.10927
579.24031,0.09963
577.75052,0.08061
576.26073,0.07468
574.77094,0.04683
573.28115,0.05624
571.79137,0.06567
570.30158,0.04416
568.81179,0.05168
567.32200,0.06080
565.83221,0.06994
564.34242,0.07597
562.85264,0.10136
561.36285,0.12547
559.87306,0.11549
558.38327,0.10555
556.89348,0.13365
555.40369,0.13067
553.91391,0.13635
552.42412,0.14205
550.93433,0.14986
549.44454,0.16214
547.95475,0.16661
546.46496,0.18103
544.97517,0.19547
543.48539,0.18825
541.99560,0.23672
540.50581,0.24418
539.01602,0.25167
537.52623,0.27826
536.03644,0.32525
534.54666,0.36783
533.05687,0.38352
531.56708,0.39923
530.07729,0.48553
528.58750,0.53500
527.09771,0.58149
525.60792,0.62800
524.11814,0.66239
522.62835,0.73888
521.13856,0.78926
519.64877,0.81522
518.15898,0.84121
516.66919,0.91100
515.17941,0.91365
513.68962,0.91070
512.19983,0.90777
510.71004,0.86162
509.22025,0.78726
507.73046,0.68418
506.24068,0.63313
504.75089,0.58211
503.26110,0.47596
501.77131,0.40355
500.28152,0.34907
498.79173,0.29462
497.30194,0.21026
495.81216,0.17507
494.32237,0.17622
492.83258,0.17740
491.34279,0.13627
489.85300,0.10404
488.36321,0.08465
486.87343,0.07168
485.38364,0.05874
483.89385,0.08123
482.40406,0.09513
480.91427,0.10003
479.42448,0.10496
477.93469,0.12729
476.44491,0.13449
474.95512,0.13099
473.46533,0.12752
471.97554,0.15309
470.48575,0.16064
468.99596,0.16535
467.50618,0.16628
466.01639,0.16725
464.52660,0.12995
463.03681,0.09267
461.54702,0.07724
460.05723,0.06183
458.56745,0.04841
457.07766,0.01515
455.58787,0.02360
454.09808,0.03208
452.60829,0.03888
451.11850,0.02375
449.62871,0.01897
448.13893,0.01421
446.64914,0.00125
445.15935,0.01687
443.66956,0.01918
442.17977,0.02074
440.68998,0.02231
439.20020,0.01529
437.71041,0.05926
436.22062,0.05477
434.73083,0.05030
433.24104,0.04756
431.75125,0.06444
430.26146,0.05770
428.77168,0.05098
427.28189,0.05147
425.79210,0.02741
424.30231,0.03109
422.81252,0.03479
421.32273,0.04374
419.83295,0.03233
418.34316,0.03375
416.85337,0.03519
415.36358,0.04738
413.87379,0.04652
412.38400,0.03771
410.89422,0.02893
409.40443,0.03624
407.91464,0.03992
406.42485,0.03553
404.93506,0.03259
403.44527,0.02968
401.95548,0.03293
400.46570,0.04039
398.97591,0.03311
397.48612,0.02585
395.99633,0.02189
394.50654,0.02631
393.01675,0.03272
391.52697,0.03915
390.03718,0.02325
388.54739,0.02889
387.05760,0.03769
385.56781,0.04652
384.07802,0.04413
382.58824,0.02086
381.09845,0.02048
379.60866,0.02012
378.11887,0.00215
376.62908,0.00125
375.13929,0.01080
373.64950,0.02037
372.15972,0.04174
370.66993,0.05920
369.18014,0.04271
367.69035,0.02625
366.20056,0.03233
364.71077,0.03373
363.22099,0.03529
361.73120,0.03687
360.24141,0.02083
358.75162,0.03330
357.26183,0.01836
355.77204,0.00344
354.28225,0.00736
352.79247,0.05600
351.30268,0.05775
349.81289,0.05952
348.32310,0.08759
346.83331,0.09791
345.34352,0.09557
343.85374,0.09326
342.36395,0.05896
340.87416,0.01553
339.38437,0.00838
337.89458,0.00125
336.40479,0.02065
334.91501,0.01393
333.42522,0.02410
331.93543,0.03430
330.44564,0.02766
328.95585,0.02183
327.46606,0.03667
325.97627,0.05153
324.48649,0.07478
322.99670,0.04710
321.50691,0.03773
320.01712,0.02838
318.52733,0.02272
317.03754,0.02911
315.54776,0.03891
314.05797,0.04874
312.56818,0.10277
311.07839,0.10847
309.58860,0.11210
308.09881,0.11576
306.60902,0.08075
305.11924,0.05074
303.62945,0.04441
302.13966,0.03810
300.64987,0.01522
299.16008,0.00125
