1778.52000,0.01425
1777.03021,0.02409
1775.54042,0.01836
1774.05063,0.01948
1772.56085,0.00625
1771.07106,0.01643
1769.58127,0.02420
1768.09148,0.01299
1766.60169,0.01399
1765.11190,0.01135
1763.62212,0.00899
1762.13233,0.02297
1760.64254,0.01530
1759.15275,0.02470
1757.66296,0.01878
1756.17317,0.01654
1754.68339,0.01261
1753.19360,0.01846
1751.70381,0.02555
1750.21402,0.01171
1748.72423,0.01764
1747.23444,0.01457
1745.74465,0.01981
1744.25487,0.00899
1742.76508,0.02112
1741.27529,0.02816
1739.78550,0.01841
1738.29571,0.01355
1736.80592,0.02286
1735.31614,0.01805
1733.82635,0.01717
1732.33656,0.01997
1730.84677,0.01524
1729.35698,0.01858
1727.86719,0.00975
1726.37740,0.01143
1724.88762,0.01289
1723.39783,0.00828
1721.90804,0.00858
1720.41825,0.01742
1718.92846,0.00899
1717.43867,0.01493
1715.94889,0.02139
1714.45910,0.02056
1712.96931,0.02366
1711.47952,0.00899
1709.98973,0.01900
1708.49994,0.01636
1707.01016,0.01704
1705.52037,0.01774
1704.03058,0.01591
1702.54079,0.01508
1701.05100,0.01988
1699.56121,0.02762
1698.07142,0.01955
1696.58164,0.02320
1695.09185,0.02396
1693.60206,0.02376
1692.11227,0.03870
1690.62248,0.03830
1689.13269,0.04159
1687.64291,0.04296
1686.15312,0.03703
1684.66333,0.03357
1683.17354,0.03720
1681.68375,0.05280
1680.19396,0.05891
1678.70417,0.05555
1677.21439,0.05026
1675.72460,0.06669
1674.23481,0.05365
1672.74502,0.04819
1671.25523,0.07176
1669.76544,0.07220
1668.27566,0.07973
1666.78587,0.09118
1665.29608,0.09828
1663.80629,0.09467
1662.31650,0.09036
1660.82671,0.07852
1659.33693,0.09570
1657.84714,0.09073
1656.35735,0.10407
1654.86756,0.09720
1653.37777,0.09986
1651.88798,0.09547
1650.39819,0.09501
1648.90841,0.10213
1647.41862,0.10221
1645.92883,0.09524
1644.43904,0.08830
1642.94925,0.09723
1641.45946,0.09277
1639.96968,0.09809
1638.47989,0.10392
1636.99010,0.09418
1635.50031,0.10834
1634.01052,0.09646
1632.52073,0.09873
1631.03094,0.08860
1629.54116,0.10530
1628.05137,0.10959
1626.56158,0.10538
1625.07179,0.09949
1623.58200,0.10898
1622.09221,0.09827
1620.60243,0.11365
1619.11264,0.11468
1617.62285,0.11306
1616.13306,0.11024
1614.64327,0.10014
1613.15348,0.10590
1611.66370,0.10388
1610.17391,0.10311
1608.68412,0.08287
1607.19433,0.10749
1605.70454,0.09266
1604.21475,0.09187
1602.72496,0.09110
1601.23518,0.10876
1599.74539,0.08964
1598.25560,0.09418
1596.76581,0.08266
1595.27602,0.08848
1593.78623,0.09090
1592.29645,0.08994
1590.80666,0.09509
1589.31687,0.10344
1587.82708,0.08841
1586.33729,0.08633
1584.84750,0.08500
1583.35771,0.08151
1581.86793,0.07658
1580.37814,0.08141
1578.88835,0.07897
1577.39856,0.07801
1575.90877,0.05782
1574.41898,0.05520
1572.92920,0.05943
1571.43941,0.04955
1569.94962,0.04530
1568.45983,0.04108
1566.97004,0.03810
1565.48025,0.04903
1563.99047,0.04074
1562.50068,0.04246
1561.01089,0.04615
1559.52110,0.02697
1558.03131,0.02730
1556.54152,0.03034
1555.05173,0.02244
1553.56195,0.04332
1552.07216,0.03814
1550.58237,0.02520
1549.09258,0.02690
1547.60279,0.00425
1546.11300,0.00917
1544.62322,0.00803
1543.13343,0.01032
1541.64364,0.00922
1540.15385,0.01936
1538.66406,0.02953
1537.17427,0.01437
1535.68448,0.00899
1534.19470,0.02155
1532.70491,0.02220
1531.21512,0.01945
1529.72533,0.03282
1528.23554,0.01770
1526.74575,0.01503
1525.25597,0.01458
1523.76618,0.03194
1522.27639,0.03057
1520.78660,0.03458
1519.29681,0.04568
1517.80702,0.03975
1516.31724,0.03408
1514.82745,0.02601
1513.33766,0.02770
1511.84787,0.02943
1510.35808,0.04530
1508.86829,0.03465
1507.37850,0.03010
1505.88872,0.04265
1504.39893,0.05083
1502.90914,0.04075
1501.41935,0.03875
1499.92956,0.05797
1498.43977,0.05966
1496.94999,0.07309
1495.46020,0.08848
1493.97041,0.08465
1492.48062,0.11033
1490.99083,0.11337
1489.50104,0.12179
1488.01125,0.13097
1486.52147,0.14018
1485.03168,0.17305
1483.54189,0.16256
1482.05210,0.17477
1480.56231,0.20406
1479.07252,0.23312
1477.58274,0.25515
1476.09295,0.26989
1474.60316,0.25590
1473.11337,0.24753
1471.62358,0.28087
1470.13379,0.28693
1468.64401,0.31203
1467.15422,0.31741
1465.66443,0.33988
1464.17464,0.36237
1462.68485,0.36953
1461.19506,0.40865
1459.70527,0.42195
1458.21549,0.49693
1456.72570,0.56366
1455.23591,0.61408
1453.74612,0.66501
1452.25633,0.71841
1450.76654,0.73649
1449.27676,0.71828
1447.78697,0.73300
1446.29718,0.67732
1444.80739,0.66260
1443.31760,0.64790
1441.82781,0.62860
1440.33802,0.55766
1438.84824,0.51721
1437.35845,0.48896
1435.86866,0.47293
1434.37887,0.49201
1432.88908,0.53110
1431.39929,0.57582
1429.90951,0.65834
1428.41972,0.70311
1426.92993,0.76253
1425.44014,0.80808
1423.95035,0.83574
1422.46056,0.86343
1420.97078,0.89906
1419.48099,0.95495
1417.99120,0.91923
1416.50141,0.88986
1415.01162,0.85443
1413.52183,0.84584
1412.03204,0.76708
1410.54226,0.72392
1409.05247,0.66739
1407.56268,0.63233
1406.07289,0.56804
1404.58310,0.52535
1403.09331,0.48269
1401.60353,0.41019
1400.11374,0.37988
1398.62395,0.32059
1397.13416,0.27839
1395.64437,0.24231
1394.15458,0.20552
1392.66479,0.17192
1391.17501,0.13932
1389.68522,0.11357
1388.19543,0.10953
1386.70564,0.08955
1385.21585,0.06960
1383.72606,0.04566
1382.23628,0.04025
1380.74649,0.03512
1379.25670,0.00954
1377.76691,0.02249
1376.27712,0.02060
1374.78733,0.00899
1373.29755,0.01161
1371.80776,0.01377
1370.31797,0.01791
1368.82818,0.01963
1367.33839,0.02138
1365.84860,0.02608
1364.35881,0.04103
1362.86903,0.03968
1361.37924,0.05859
1359.88945,0.07801
1358.39966,0.09477
1356.90987,0.12130
1355.42008,0.15444
1353.93030,0.23610
1352.44051,0.26697
1350.95072,0.29787
1349.46093,0.36571
1347.97114,0.45405
1346.48135,0.52218
1344.99156,0.58327
1343.50178,0.64415
1342.01199,0.72527
1340.52220,0.77474
1339.03241,0.83081
1337.54262,0.86693
1336.05283,0.87589
1334.56305,0.88488
1333.07326,0.92765
1331.58347,0.94973
1330.09368,0.94600
1328.60389,0.90647
1327.11410,0.88353
1325.62432,0.84308
1324.13453,0.78997
1322.64474,0.76151
1321.15495,0.75598
1319.66516,0.73341
1318.17537,0.71087
1316.68558,0.65862
1315.19580,0.61663
1313.70601,0.53567
1312.21622,0.49422
1310.72643,0.48155
1309.23664,0.44087
1307.74685,0.43556
1306.25707,0.37739
1304.76728,0.35836
1303.27749,0.33935
1301.78770,0.31196
1300.29791,0.25706
1298.80812,0.24800
1297.31834,0.19899
1295.82855,0.17292
1294.33876,0.14663
1292.84897,0.12743
1291.35918,0.10265
1289.86939,0.11128
1288.37960,0.11993
1286.88982,0.10546
1285.40003,0.09150
1283.91024,0.09365
1282.42045,0.06341
1280.93066,0.06123
1279.44087,0.06028
1277.95109,0.07155
1276.46130,0.05140
1274.97151,0.04480
1273.48172,0.03823
1271.99193,0.03229
1270.50214,0.04928
1269.01235,0.04607
1267.52257,0.04703
1266.03278,0.02949
1264.54299,0.04950
1263.05320,0.03664
1261.56341,0.03088
1260.07362,0.02513
1258.58384,0.03233
1257.09405,0.01713
1255.60426,0.02365
1254.11447,0.00899
1252.62468,0.02087
1251.13489,0.02937
1249.64511,0.02888
1248.15532,0.03207
1246.66553,0.03260
1245.17574,0.03316
1243.68595,0.03642
1242.19616,0.02922
1240.70637,0.03131
1239.21659,0.03392
1237.72680,0.01827
1236.23701,0.02872
1234.74722,0.03115
1233.25743,0.03191
1231.76764,0.03268
1230.27786,0.02520
1228.78807,0.02822
1227.29828,0.02152
1225.80849,0.00899
1224.31870,0.01148
1222.82891,0.02617
1221.33912,0.02676
1219.84934,0.03225
1218.35955,0.03776
1216.86976,0.05524
1215.37997,0.08078
1213.89018,0.07613
1212.40039,0.07102
1210.91061,0.07592
1209.42082,0.05989
1207.93103,0.06862
1206.44124,0.07738
1204.95145,0.06508
1203.46166,0.09204
1201.97188,0.06541
1200.48209,0.06171
1198.99230,0.05609
1197.50251,0.06487
1196.01272,0.07050
1194.52293,0.06349
1193.03314,0.05650
1191.54336,0.04467
1190.05357,0.03213
1188.56378,0.03082
1187.07399,0.03514
1185.58420,0.02925
1184.09441,0.03533
1182.60463,0.03400
1181.11484,0.03269
1179.62505,0.02373
1178.13526,0.02089
1176.64547,0.01125
1175.15568,0.02210
1173.66589,0.02860
1172.17611,0.02195
1170.68632,0.01546
1169.19653,0.00899
1167.70674,0.02944
1166.21695,0.01775
1164.72716,0.03460
1163.23738,0.03246
1161.74759,0.05911
1160.25780,0.08505
1158.76801,0.08420
1157.27822,0.08338
1155.78843,0.09355
1154.29865,0.09936
1152.80886,0.10447
1151.31907,0.13031
1149.82928,0.12108
1148.33949,0.14648
1146.84970,0.14425
1145.35991,0.14205
1143.87013,0.13389
1142.38034,0.14575
1140.89055,0.14885
1139.40076,0.15247
1137.91097,0.16635
1136.42118,0.18367
1134.93140,0.19601
1133.44161,0.20838
1131.95182,0.21699
1130.46203,0.22953
1128.97224,0.22698
1127.48245,0.22373
1125.99266,0.22513
1124.50288,0.22510
1123.01309,0.23143
1121.52330,0.23778
1120.03351,0.23343
1118.54372,0.22009
1117.05393,0.22895
1115.56415,0.24856
1114.07436,0.21823
1112.58457,0.22436
1111.09478,0.23052
1109.60499,0.22464
1108.11520,0.22707
1106.62542,0.22903
1105.13563,0.20397
1103.64584,0.21110
1102.15605,0.20754
1100.66626,0.20095
1099.17647,0.19439
1097.68668,0.20284
1096.19690,0.19913
1094.70711,0.19812
1093.21732,0.19544
1091.72753,0.18424
1090.23774,0.17978
1088.74795,0.17534
1087.25817,0.17275
1085.76838,0.14801
1084.27859,0.17885
1082.78880,0.18194
1081.29901,0.19359
1079.80922,0.20745
1078.31943,0.22097
1076.82965,0.23452
1075.33986,0.24675
1073.85007,0.23805
1072.36028,0.24131
1070.87049,0.23582
1069.38070,0.25546
1067.89092,0.26623
1066.40113,0.27702
1064.91134,0.37180
1063.42155,0.44491
1061.93176,0.56361
1060.44197,0.65212
1058.95219,0.73505
1057.46240,0.78438
1055.97261,0.83373
1054.48282,0.88602
1052.99303,0.96881
1051.50324,0.99776
1050.01345,1.02527
1048.52367,1.02235
1047.03388,0.99947
1045.54409,0.97661
1044.05430,0.89114
1042.56451,0.81301
1041.07472,0.77902
1039.58494,0.69509
1038.09515,0.61021
1036.60536,0.57787
1035.11557,0.54556
1033.62578,0.48098
1032.13599,0.41033
1030.64620,0.34068
1029.15642,0.28447
1027.66663,0.26385
1026.17684,0.24326
1024.68705,0.21368
1023.19726,0.17511
1021.70747,0.17214
1020.21769,0.15579
1018.72790,0.16310
1017.23811,0.15083
1015.74832,0.13857
1014.25853,0.14328
1012.76874,0.14095
1011.27896,0.11524
1009.78917,0.11564
1008.29938,0.09437
1006.80959,0.08214
1005.31980,0.06994
1003.83001,0.04826
1002.34022,0.04341
1000.85044,0.03957
999.36065,0.03989
997.87086,0.05279
996.38107,0.06572
994.89128,0.07489
993.40149,0.11113
991.91171,0.10354
990.42192,0.12838
988.93213,0.11815
987.44234,0.13159
985.95255,0.14505
984.46276,0.12905
982.97297,0.11405
981.48319,0.10419
979.99340,0.08729
978.50361,0.07808
977.01382,0.06891
975.52403,0.06304
974.03424,0.02260
972.54446,0.02410
971.05467,0.00929
969.56488,0.01763
968.07509,0.02686
966.58530,0.03610
965.09551,0.02819
963.60573,0.02225
962.11594,0.01220
960.62615,0.00899
959.13636,0.01461
957.64657,0.02026
956.15678,0.02167
954.66699,0.04309
953.17721,0.04065
951.68742,0.03872
950.19763,0.04741
948.70784,0.05613
947.21805,0.07499
945.72826,0.08169
944.23848,0.11547
942.74869,0.11832
941.25890,0.10900
939.76911,0.12518
938.27932,0.14139
936.78953,0.14531
935.29974,0.17460
933.80996,0.19514
932.32017,0.20621
930.83038,0.21388
929.34059,0.22158
927.85080,0.24832
926.36101,0.27459
924.87123,0.31087
923.38144,0.37911
921.89165,0.41606
920.40186,0.45303
918.91207,0.50745
917.42228,0.61502
915.93250,0.76550
914.44271,0.94331
912.95292,1.04206
911.46313,1.14083
909.97334,1.34503
908.48355,1.58996
906.99376,1.78470
905.50398,1.89442
904.01419,1.92264
902.52440,1.95089
901.03461,2.00000
899.54482,1.88878
898.05503,1.75492
896.56525,1.51702
895.07546,1.41708
893.58567,1.31717
892.09588,1.09031
890.60609,0.82619
889.11630,0.63935
887.62651,0.46667
886.13673,0.39527
884.64694,0.32390
883.15715,0.26753
881.66736,0.21436
880.17757,0.17145
878.68778,0.14209
877.19800,0.11276
875.70821,0.09332
874.21842,0.05124
872.72863,0.04744
871.23884,0.05659
869.74905,0.03956
868.25927,0.02256
866.76948,0.02374
865.27969,0.05151
863.78990,0.05517
862.30011,0.07836
860.81032,0.08317
859.32053,0.08800
857.83075,0.07300
856.34096,0.09433
854.85117,0.13397
853.36138,0.13269
851.87159,0.14739
850.38180,0.16212
848.89202,0.19820
847.40223,0.22261
845.91244,0.22047
844.42265,0.23189
842.93286,0.24333
841.44307,0.24883
839.95329,0.27384
838.46350,0.28377
836.97371,0.31639
835.48392,0.31395
833.99413,0.31152
832.50434,0.29328
831.01455,0.28018
829.52477,0.26857
828.03498,0.24407
826.54519,0.23056
825.05540,0.21707
823.56561,0.19557
822.07582,0.18457
820.58604,0.14800
819.09625,0.13815
817.60646,0.12832
816.11667,0.15178
814.62688,0.14894
813.13709,0.16782
811.64730,0.14798
810.15752,0.13924
808.66773,0.13054
807.17794,0.15098
805.68815,0.15633
804.19836,0.17219
802.70857,0.17125
801.21879,0.17035
799.72900,0.14924
798.23921,0.10890
796.74942,0.14169
795.25963,0.14332
793.76984,0.14497
792.28006,0.15201
790.79027,0.16395
789.30048,0.19345
787.81069,0.20983
786.32090,0.22768
784.83111,0.24557
783.34132,0.29540
781.85154,0.31918
780.36175,0.35932
778.87196,0.38327
777.38217,0.40725
775.89238,0.40334
774.40259,0.44163
772.91281,0.41145
771.42302,0.40787
769.93323,0.40431
768.44344,0.33717
766.95365,0.32488
765.46386,0.29264
763.97407,0.25409
762.48429,0.22579
760.99450,0.19752
759.50471,0.15563
758.01492,0.12399
756.52513,0.11359
755.03534,0.10771
753.54556,0.10187
752.05577,0.09665
750.56598,0.09902
749.07619,0.06046
747.58640,0.05630
746.09661,0.05216
744.60683,0.03878
743.11704,0.04346
741.62725,0.04451
740.13746,0.03961
738.64767,0.03474
737.15788,0.01637
735.66809,0.00899
734.17831,0.02313
732.68852,0.01999
731.19873,0.01687
729.70894,0.01841
728.21915,0.04240
726.72936,0.03131
725.23958,0.02708
723.74979,0.01970
722.26000,0.01235
720.77021,0.01465
719.28042,0.01137
717.79063,0.01031
716.30084,0.00963
714.81106,0.00899
713.32127,0.03002
711.83148,0.03572
710.34169,0.01439
708.85190,0.01941
707.36211,0.02445
705.87233,0.03610
704.38254,0.05216
702.89275,0.05264
701.40296,0.04925
699.91317,0.04589
698.42338,0.05376
696.93360,0.05873
695.44381,0.07006
693.95402,0.08105
692.46423,0.09207
690.97444,0.09982
689.48465,0.14756
687.99486,0.16633
686.50508,0.16830
685.01529,0.17030
683.52550,0.18159
682.03571,0.20167
680.54592,0.22787
679.05613,0.23484
677.56635,0.24184
676.07656,0.24082
674.58677,0.22666
673.09698,0.20765
671.60719,0.18416
670.11740,0.16070
668.62761,0.14664
667.13783,0.12920
665.64804,0.12384
664.15825,0.11851
662.66846,0.11308
661.17867,0.07428
659.68888,0.05404
658.19910,0.04588
656.70931,0.03774
655.21952,0.02732
653.72973,0.03032
652.23994,0.04188
650.75015,0.04444
649.26037,0.04703
647.77058,0.05160
646.28079,0.03718
644.79100,0.03375
643.30121,0.03083
641.81142,0.02794
640.32163,0.01386
638.83185,0.02808
637.34206,0.02867
635.85227,0.02039
634.36248,0.01214
632.87269,0.01875
631.38290,0.01905
629.89312,0.03473
628.40333,0.02850
626.91354,0.02230
625.42375,0.02562
623.93396,0.00899
622.44417,0.00927
620.95438,0.00958
619.46460,0.01381
617.97481,0.03683
616.48502,0.04208
614.99523,0.05284
613.50544,0.06363
612.01565,0.11648
610.52587,0.15449
609.03608,0.17595
607.54629,0.19841
606.05650,0.22090
604.56671,0.29337
603.07692,0.32443
601.58714,0.32213
600.09735,0.31986
598.60756,0.38414
597.11777,0.41019
595.62798,0.42334
594.13819,0.41690
592.64840,0.41049
591.15862,0.35840
589.66883,0.31658
588.17904,0.24456
586.68925,0.22861
585.19946,0.21270
583.70967,0.16366
582.21989,0.15510
580.73010,0.13901
579.24031,0.12295
577.75052,0.10155
576.26073,0.08602
574.77094,0.06686
573.28115,0.06235
571.79137,0.05786
570.30158,0.08825
568.81179,0.09746
567.32200,0.10133
565.83221,0.10523
564.34242,0.14229
562.85264,0.13332
561.36285,0.16751
559.87306,0.17589
558.38327,0.18430
556.89348,0.20614
555.40369,0.22653
553.91391,0.22587
552.42412,0.22524
550.93433,0.24133
549.44454,0.20918
547.95475,0.21703
546.46496,0.21284
544.97517,0.20867
543.48539,0.23609
541.99560,0.28083
540.50581,0.30988
539.01602,0.33896
537.52623,0.39962
536.03644,0.42131
534.54666,0.41914
533.05687,0.44308
531.56708,0.46704
530.07729,0.51368
528.58750,0.52843
527.09771,0.55868
525.60792,0.58895
524.11814,0.64471
522.62835,0.69514
521.13856,0.75193
519.64877,0.76463
518.15898,0.77735
516.66919,0.83007
515.17941,0.87258
513.68962,0.86990
512.19983,0.86725
510.71004,0.79919
509.22025,0.75967
507.73046,0.67387
506.24068,0.61222
504.75089,0.55059
503.26110,0.47413
501.77131,0.35430
500.28152,0.32334
498.79173,0.29239
497.30194,0.22724
495.81216,0.19890
494.32237,0.18485
492.83258,0.17082
491.34279,0.11770
489.85300,0.07850
488.36321,0.07295
486.87343,0.08619
485.38364,0.09946
483.89385,0.11324
482.40406,0.11705
480.91427,0.11601
479.42448,0.11500
477.93469,0.14204
476.44491,0.17202
474.95512,0.18668
473.46533,0.20136
471.97554,0.20998
470.48575,0.20765
468.99596,0.20120
467.50618,0.19734
466.01639,0.19350
464.52660,0.15618
463.03681,0.12814
461.54702,0.11780
460.05723,0.10748
458.56745,0.06513
457.07766,0.06254
455.58787,0.06107
454.09808,0.05962
452.60829,0.04418
451.11850,0.02999
449.62871,0.01948
448.13893,0.00899
446.64914,0.01359
445.15935,0.03260
443.66956,0.03262
442.17977,0.02888
440.68998,0.02518
439.20020,0.02186
437.71041,0.02637
436.22062,0.03297
434.73083,0.03960
433.24104,0.02492
431.75125,0.03586
430.26146,0.03074
428.77168,0.02565
427.28189,0.02667
425.79210,0.06159
424.30231,0.05901
422.81252,0.05645
421.32273,0.04856
419.83295,0.03459
418.34316,0.03199
416.85337,0.02940
415.36358,0.03574
413.87379,0.02772
412.38400,0.03058
410.89422,0.03345
409.40443,0.05549
407.91464,0.04172
406.42485,0.03407
404.93506,0.03570
403.44527,0.03736
401.95548,0.05026
400.46570,0.03223
398.97591,0.02458
397.48612,0.01695
395.99633,0.00899
394.50654,0.01967
393.01675,0.01587
391.52697,0.01209
390.03718,0.00899
388.54739,0.02299
387.05760,0.02130
385.56781,0.01963
384.07802,0.02103
382.58824,0.01978
381.09845,0.01733
379.60866,0.01491
378.11887,0.03055
376.62908,0.00356
375.13929,0.01096
373.64950,0.01838
372.15972,0.00000
370.66993,0.02230
369.18014,0.02017
367.69035,0.01807
366.20056,0.02501
364.71077,0.03587
363.22099,0.03323
361.73120,0.03062
360.24141,0.02400
358.75162,0.04496
357.26183,0.04351
355.77204,0.04209
354.28225,0.02486
352.79247,0.03689
351.30268,0.05200
349.81289,0.06713
348.32310,0.05657
346.83331,0.05822
345.34352,0.04710
343.85374,0.03601
342.36395,0.05870
340.87416,0.04851
339.38437,0.04602
337.89458,0.04355
336.40479,0.02247
334.91501,0.01603
333.42522,0.02027
331.93543,0.02452
330.44564,0.01443
328.95585,0.00899
327.46606,0.01814
325.97627,0.02732
324.48649,0.04804
322.99670,0.06878
321.50691,0.07128
320.01712,0.07379
318.52733,0.06341
317.03754,0.06354
315.54776,0.05821
314.05797,0.05290
312.56818,0.05603
311.07839,0.08696
309.58860,0.07003
308.09881,0.05313
306.60902,0.05464
305.11924,0.07422
303.62945,0.05836
302.13966,0.04253
300.64987,0.02587
299.16008,0.00899
