1778.52000,0.00852
1777.03021,0.00910
1775.54042,0.01147
1774.05063,0.01871
1772.56085,0.01056
1771.07106,0.01609
1769.58127,0.01063
1768.09148,0.01202
1766.60169,0.00484
1765.11190,0.01047
1763.62212,0.00599
1762.13233,0.01232
1760.64254,0.01252
1759.15275,0.00921
1757.66296,0.01254
1756.17317,0.01390
1754.68339,0.01441
1753.19360,0.00592
1751.70381,0.00472
1750.21402,0.00993
1748.72423,0.00988
1747.23444,0.01338
1745.74465,0.00633
1744.25487,0.01186
1742.76508,0.01323
1741.27529,0.01264
1739.78550,0.00679
1738.29571,0.01453
1736.80592,0.02076
1735.31614,0.01666
1733.82635,0.01985
1732.33656,0.01425
1730.84677,0.00274
1729.35698,0.00777
1727.86719,0.00885
1726.37740,0.00248
1724.88762,0.00328
1723.39783,0.00388
1721.90804,0.00407
1720.41825,0.00781
1718.92846,0.01377
1717.43867,0.00456
1715.94889,0.01539
1714.45910,0.00664
1712.96931,0.00717
1711.47952,0.00794
1709.98973,0.01116
1708.49994,0.00449
1707.01016,0.00523
1705.52037,0.00599
1704.03058,0.01799
1702.54079,0.01439
1701.05100,0.01983
1699.56121,0.01584
1698.07142,0.01098
1696.58164,0.01848
1695.09185,0.03218
1693.60206,0.02299
1692.11227,0.03365
1690.62248,0.03090
1689.13269,0.04910
1687.64291,0.04045
1686.15312,0.04857
1684.66333,0.04526
1683.17354,0.04153
1681.68375,0.04157
1680.19396,0.05133
1678.70417,0.05076
1677.21439,0.07201
1675.72460,0.06180
1674.23481,0.06483
1672.74502,0.06524
1671.25523,0.07074
1669.76544,0.08111
1668.27566,0.08005
1666.78587,0.07307
1665.29608,0.08439
1663.80629,0.08913
1662.31650,0.10535
1660.82671,0.09759
1659.33693,0.10174
1657.84714,0.10129
1656.35735,0.09889
1654.86756,0.08902
1653.37777,0.09173
1651.88798,0.09139
1650.39819,0.08974
1648.90841,0.09539
1647.41862,0.08697
1645.92883,0.08121
1644.43904,0.07548
1642.94925,0.07264
1641.45946,0.11342
1639.96968,0.09455
1638.47989,0.08870
1636.99010,0.08287
1635.50031,0.08390
1634.01052,0.08362
1632.52073,0.10033
1631.03094,0.08271
1629.54116,0.09308
1628.05137,0.08410
1626.56158,0.07338
1625.07179,0.07281
1623.58200,0.08086
1622.09221,0.10171
1620.60243,0.09307
1619.11264,0.09194
1617.62285,0.08511
1616.13306,0.09725
1614.64327,0.08826
1613.15348,0.09494
1611.66370,0.10098
1610.17391,0.09956
1608.68412,0.10191
1607.19433,0.10582
1605.70454,0.07937
1604.21475,0.08113
1602.72496,0.08292
1601.23518,0.08561
1599.74539,0.08062
1598.25560,0.08292
1596.76581,0.08656
1595.27602,0.08781
1593.78623,0.07807
1592.29645,0.07078
1590.80666,0.07893
1589.31687,0.06706
1587.82708,0.06447
1586.33729,0.08238
1584.84750,0.09415
1583.35771,0.07687
1581.86793,0.07306
1580.37814,0.06464
1578.88835,0.06374
1577.39856,0.06154
1575.90877,0.05628
1574.41898,0.05346
1572.92920,0.04121
1571.43941,0.05012
1569.94962,0.04451
1568.45983,0.03894
1566.97004,0.02700
1565.48025,0.02830
1563.99047,0.02896
1562.50068,0.02590
1561.01089,0.02948
1559.52110,0.02801
1558.03131,0.03847
1556.54152,0.01855
1555.05173,0.03191
1553.56195,0.04090
1552.07216,0.02766
1550.58237,0.01842
1549.09258,0.00523
1547.60279,-0.00000
1546.11300,0.00845
1544.62322,0.00458
1543.13343,0.00978
1541.64364,0.01323
1540.15385,0.00911
1538.66406,0.00502
1537.17427,0.01427
1535.68448,0.00858
1534.19470,0.00599
1532.70491,0.00599
1531.21512,0.01575
1529.72533,0.03170
1528.23554,0.03556
1526.74575,0.02844
1525.25597,0.04909
1523.76618,0.04730
1522.27639,0.03298
1520.78660,0.02573
1519.29681,0.03767
1517.80702,0.04148
1516.31724,0.03145
1514.82745,0.05205
1513.33766,0.04878
1511.84787,0.04554
1510.35808,0.05256
1508.86829,0.04595
1507.37850,0.04377
1505.88872,0.03831
1504.39893,0.04719
1502.90914,0.03870
1501.41935,0.05401
1499.92956,0.06011
1498.43977,0.09001
1496.94999,0.07787
1495.46020,0.09020
1493.97041,0.10454
1492.48062,0.12463
1490.99083,0.13461
1489.50104,0.13163
1488.01125,0.13428
1486.52147,0.13696
1485.03168,0.15387
1483.54189,0.17278
1482.05210,0.19481
1480.56231,0.21730
1479.07252,0.22263
1477.58274,0.25112
1476.09295,0.27874
1474.60316,0.28085
1473.11337,0.29047
1471.62358,0.29482
1470.13379,0.29282
1468.64401,0.30207
1467.15422,0.34240
1465.66443,0.35247
1464.17464,0.36256
1462.68485,0.37059
1461.19506,0.42798
1459.70527,0.46402
1458.21549,0.50053
1456.72570,0.56614
1455.23591,0.63133
1453.74612,0.67629
1452.25633,0.72853
1450.76654,0.78279
1449.27676,0.80976
1447.78697,0.76275
1446.29718,0.73141
1444.80739,0.71903
1443.31760,0.70668
1441.82781,0.62850
1440.33802,0.55982
1438.84824,0.52948
1437.35845,0.52537
1435.86866,0.51138
1434.37887,0.51569
1432.88908,0.56561
1431.39929,0.59926
1429.90951,0.66730
1428.41972,0.76729
1426.92993,0.85276
1425.44014,0.89158
1423.95035,0.90058
1422.46056,0.90960
1420.97078,0.92558
1419.48099,0.94952
1417.99120,0.92746
1416.50141,0.91136
1415.01162,0.85168
1413.52183,0.82000
1412.03204,0.77315
1410.54226,0.71553
1409.05247,0.69515
1407.56268,0.61225
1406.07289,0.54436
1404.58310,0.51866
1403.09331,0.49298
1401.60353,0.42560
1400.11374,0.40053
1398.62395,0.34024
1397.13416,0.30288
1395.64437,0.24617
1394.15458,0.22758
1392.66479,0.20637
1391.17501,0.17572
1389.68522,0.13650
1388.19543,0.08806
1386.70564,0.07202
1385.21585,0.05600
1383.72606,0.05542
1382.23628,0.03813
1380.74649,0.03408
1379.25670,0.01507
1377.76691,0.02296
1376.27712,0.00599
1374.78733,0.01071
1373.29755,0.01832
1371.80776,0.02750
1370.31797,0.02018
1368.82818,0.02093
1367.33839,0.02170
1365.84860,0.03208
1364.35881,0.03917
1362.86903,0.04938
1361.37924,0.07414
1359.88945,0.09365
1358.39966,0.12133
1356.90987,0.14308
1355.42008,0.17455
1353.93030,0.24459
1352.44051,0.27798
1350.95072,0.31139
1349.46093,0.38679
1347.97114,0.44415
1346.48135,0.50616
1344.99156,0.60167
1343.50178,0.65294
1342.01199,0.67318
1340.52220,0.71789
1339.03241,0.79235
1337.54262,0.82940
1336.05283,0.86263
1334.56305,0.89587
1333.07326,0.89930
1331.58347,0.86818
1330.09368,0.83774
1328.60389,0.84785
1327.11410,0.87451
1325.62432,0.81860
1324.13453,0.78605
1322.64474,0.72777
1321.15495,0.67436
1319.66516,0.65632
1318.17537,0.63830
1316.68558,0.62108
1315.19580,0.55741
1313.70601,0.50809
1312.21622,0.48565
1310.72643,0.48130
1309.23664,0.44901
1307.74685,0.41982
1306.25707,0.36467
1304.76728,0.35238
1303.27749,0.34012
1301.78770,0.30883
1300.29791,0.28020
1298.80812,0.22892
1297.31834,0.19947
1295.82855,0.17841
1294.33876,0.14636
1292.84897,0.12226
1291.35918,0.11867
1289.86939,0.11158
1288.37960,0.10452
1286.88982,0.10144
1285.40003,0.10346
1283.91024,0.09383
1282.42045,0.08334
1280.93066,0.06781
1279.44087,0.05913
1277.95109,0.05025
1276.46130,0.04823
1274.97151,0.03798
1273.48172,0.02774
1271.99193,0.02844
1270.50214,0.01727
1269.01235,0.03100
1267.52257,0.02538
1266.03278,0.01671
1264.54299,0.02391
1263.05320,0.04127
1261.56341,0.04434
1260.07362,0.04743
1258.58384,0.04615
1257.09405,0.02947
1255.60426,0.00599
1254.11447,0.02102
1252.62468,0.02353
1251.13489,0.02055
1249.64511,0.02729
1248.15532,0.03119
1246.66553,0.02697
1245.17574,0.02277
1243.68595,0.01794
1242.19616,0.01269
1240.70637,0.01385
1239.21659,0.02517
1237.72680,0.02682
1236.23701,0.01219
1234.74722,0.03107
1233.25743,0.02410
1231.76764,0.01715
1230.27786,0.01099
1228.78807,0.01411
1227.29828,0.02585
1225.80849,0.01250
1224.31870,0.01679
1222.82891,0.02001
1221.33912,0.01599
1219.84934,0.01650
1218.35955,0.01704
1216.86976,0.02652
1215.37997,0.04242
1213.89018,0.06120
1212.40039,0.08111
1210.91061,0.07571
1209.42082,0.07541
1207.93103,0.07491
1206.44124,0.07443
1204.95145,0.06848
1203.46166,0.05660
1201.97188,0.05994
1200.48209,0.05450
1198.99230,0.05701
1197.50251,0.04985
1196.01272,0.04382
1194.52293,0.03804
1193.03314,0.03228
1191.54336,0.02743
1190.05357,0.01313
1188.56378,0.03982
1187.07399,0.03107
1185.58420,0.02984
1184.09441,0.02114
1182.60463,0.02117
1181.11484,0.02122
1179.62505,0.02472
1178.13526,0.00599
1176.64547,0.02161
1175.15568,0.00599
1173.66589,0.01636
1172.17611,0.01816
1170.68632,0.01603
1169.19653,0.01392
1167.70674,0.02042
1166.21695,0.01418
1164.72716,0.03593
1163.23738,0.03061
1161.74759,0.04977
1160.25780,0.07247
1158.76801,0.07087
1157.27822,0.06928
1155.78843,0.07797
1154.29865,0.07919
1152.80886,0.07140
1151.31907,0.08104
1149.82928,0.10149
1148.33949,0.11492
1146.84970,0.11087
1145.35991,0.10684
1143.87013,0.10537
1142.38034,0.12925
1140.89055,0.11990
1139.40076,0.15616
1137.91097,0.16668
1136.42118,0.20255
1134.93140,0.20112
1133.44161,0.19971
1131.95182,0.22486
1130.46203,0.24916
1128.97224,0.24727
1127.48245,0.21502
1125.99266,0.22640
1124.50288,0.23802
1123.01309,0.25286
1121.52330,0.26773
1120.03351,0.26290
1118.54372,0.22617
1117.05393,0.23946
1115.56415,0.22062
1114.07436,0.21920
1112.58457,0.21318
1111.09478,0.20718
1109.60499,0.19967
1108.11520,0.22720
1106.62542,0.21071
1105.13563,0.24842
1103.64584,0.22360
1102.15605,0.20432
1100.66626,0.21491
1099.17647,0.22552
1097.68668,0.19816
1096.19690,0.19351
1094.70711,0.19153
1093.21732,0.18429
1091.72753,0.20130
1090.23774,0.20115
1088.74795,0.20103
1087.25817,0.18156
1085.76838,0.17510
1084.27859,0.17461
1082.78880,0.17393
1081.29901,0.18604
1079.80922,0.16933
1078.31943,0.16895
1076.82965,0.16858
1075.33986,0.20062
1073.85007,0.23554
1072.36028,0.22512
1070.87049,0.27264
1069.38070,0.28980
1067.89092,0.30401
1066.40113,0.31824
1064.91134,0.34714
1063.42155,0.44412
1061.93176,0.53210
1060.44197,0.59631
1058.95219,0.68477
1057.46240,0.74144
1055.97261,0.79813
1054.48282,0.88623
1052.99303,0.95673
1051.50324,0.95965
1050.01345,0.95774
1048.52367,0.93120
1047.03388,0.90545
1045.54409,0.87973
1044.05430,0.86030
1042.56451,0.81712
1041.07472,0.74819
1039.58494,0.66255
1038.09515,0.56615
1036.60536,0.54883
1035.11557,0.53154
1033.62578,0.46802
1032.13599,0.40453
1030.64620,0.33269
1029.15642,0.28422
1027.66663,0.26452
1026.17684,0.24484
1024.68705,0.19248
1023.19726,0.17054
1021.70747,0.16382
1020.21769,0.15756
1018.72790,0.12578
1017.23811,0.13048
1015.74832,0.13520
1014.25853,0.12882
1012.76874,0.11630
1011.27896,0.11019
1009.78917,0.10212
1008.29938,0.08660
1006.80959,0.08287
1005.31980,0.07918
1003.83001,0.04588
1002.34022,0.03507
1000.85044,0.02561
999.36065,0.01948
997.87086,0.03165
996.38107,0.04385
994.89128,0.07215
993.40149,0.10047
991.91171,0.11406
990.42192,0.13759
988.93213,0.13978
987.44234,0.13836
985.95255,0.13696
984.46276,0.13812
982.97297,0.12455
981.48319,0.09339
979.99340,0.09176
978.50361,0.07705
977.01382,0.06237
975.52403,0.04210
974.03424,0.02361
972.54446,0.01418
971.05467,0.02877
969.56488,0.03965
968.07509,0.03062
966.58530,0.02162
965.09551,0.03808
963.60573,0.02505
962.11594,0.02503
960.62615,0.00941
959.13636,0.00769
957.64657,0.00599
956.15678,0.01409
954.66699,0.04161
953.17721,0.04425
951.68742,0.05486
950.19763,0.05734
948.70784,0.05984
947.21805,0.08549
945.72826,0.07989
944.23848,0.09414
942.74869,0.11260
941.25890,0.11677
939.76911,0.13418
938.27932,0.15161
936.78953,0.16135
935.29974,0.19425
933.80996,0.20933
932.32017,0.22884
930.83038,0.22525
929.34059,0.22169
927.85080,0.24744
926.36101,0.24789
924.87123,0.26004
923.38144,0.31714
921.89165,0.34904
920.40186,0.38097
918.91207,0.50928
917.42228,0.62131
915.93250,0.76486
914.44271,0.95953
912.95292,1.08232
911.46313,1.20514
909.97334,1.42102
908.48355,1.59289
906.99376,1.75046
905.50398,1.91466
904.01419,1.93068
902.52440,1.94672
901.03461,2.00000
899.54482,1.94077
898.05503,1.78775
896.56525,1.56868
895.07546,1.43806
893.58567,1.30746
892.09588,1.07195
890.60609,0.85011
889.11630,0.67698
887.62651,0.46951
886.13673,0.40609
884.64694,0.34270
883.15715,0.26414
881.66736,0.19794
880.17757,0.11943
878.68778,0.11659
877.19800,0.11378
875.70821,0.06551
874.21842,0.06991
872.72863,0.05032
871.23884,0.05675
869.74905,0.04844
868.25927,0.04016
866.76948,0.04247
865.27969,0.04768
863.78990,0.05290
862.30011,0.07445
860.81032,0.07797
859.32053,0.08150
857.83075,0.08661
856.34096,0.12015
854.85117,0.12596
853.36138,0.13995
851.87159,0.14582
850.38180,0.15170
848.89202,0.17369
847.40223,0.18426
845.91244,0.19617
844.42265,0.20744
842.93286,0.21874
841.44307,0.22323
839.95329,0.24757
838.46350,0.24154
836.97371,0.31681
835.48392,0.30543
833.99413,0.29408
832.50434,0.26899
831.01455,0.26749
829.52477,0.24378
828.03498,0.21524
826.54519,0.20192
825.05540,0.18863
823.56561,0.16545
822.07582,0.15154
820.58604,0.14889
819.09625,0.13647
817.60646,0.12407
816.11667,0.11268
814.62688,0.11322
813.13709,0.12236
811.64730,0.12118
810.15752,0.11904
808.66773,0.11692
807.17794,0.10238
805.68815,0.12045
804.19836,0.13151
802.70857,0.13455
801.21879,0.13762
799.72900,0.11263
798.23921,0.11740
796.74942,0.11691
795.25963,0.12216
793.76984,0.12745
792.28006,0.13826
790.79027,0.13478
789.30048,0.17427
787.81069,0.21004
786.32090,0.21104
784.83111,0.21207
783.34132,0.26245
781.85154,0.28533
780.36175,0.34655
778.87196,0.35362
777.38217,0.36071
775.89238,0.40879
774.40259,0.43488
772.91281,0.41496
771.42302,0.39517
769.93323,0.37541
768.44344,0.33662
766.95365,0.28333
765.46386,0.25120
763.97407,0.21028
762.48429,0.20474
760.99450,0.19922
759.50471,0.15574
758.01492,0.12483
756.52513,0.10518
755.03534,0.10130
753.54556,0.09745
752.05577,0.07259
750.56598,0.06493
749.07619,0.06786
747.58640,0.05431
746.09661,0.04078
744.60683,0.01780
743.11704,0.03669
741.62725,0.02059
740.13746,0.02004
738.64767,0.01952
737.15788,0.01781
735.66809,0.00599
734.17831,0.01123
732.68852,0.01176
731.19873,0.01231
729.70894,0.00507
728.21915,0.01518
726.72936,0.00814
725.23958,0.00751
723.74979,0.01219
722.26000,0.01690
720.77021,0.00599
719.28042,0.01522
717.79063,0.02074
716.30084,0.01450
714.81106,0.00828
713.32127,0.01211
711.83148,0.02124
710.34169,0.01125
708.85190,0.02517
707.36211,0.03912
705.87233,0.03580
704.38254,0.02788
702.89275,0.05699
701.40296,0.05727
699.91317,0.05757
698.42338,0.05152
696.93360,0.07830
695.44381,0.09365
693.95402,0.10474
692.46423,0.11585
690.97444,0.12445
689.48465,0.13065
687.99486,0.15428
686.50508,0.15987
685.01529,0.16549
683.52550,0.20614
682.03571,0.22502
680.54592,0.24833
679.05613,0.25757
677.56635,0.26683
676.07656,0.25300
674.58677,0.22069
673.09698,0.19214
671.60719,0.19699
670.11740,0.20186
668.62761,0.19740
667.13783,0.16102
665.64804,0.13932
664.15825,0.11764
662.66846,0.11482
661.17867,0.08581
659.68888,0.06740
658.19910,0.05860
656.70931,0.04981
655.21952,0.04866
653.72973,0.05193
652.23994,0.06271
650.75015,0.06416
649.26037,0.06563
647.77058,0.05402
646.28079,0.04794
644.79100,0.04718
643.30121,0.04291
641.81142,0.03867
640.32163,0.02608
638.83185,0.02476
637.34206,0.01398
635.85227,0.01525
634.36248,0.01654
632.87269,0.03438
631.38290,0.00599
629.89312,0.01745
628.40333,0.02641
626.91354,0.03540
625.42375,0.02557
623.93396,0.01556
622.44417,0.02076
620.95438,0.02599
619.46460,0.04599
617.97481,0.04290
616.48502,0.05393
614.99523,0.07016
613.50544,0.08641
612.01565,0.14332
610.52587,0.17955
609.03608,0.18563
607.54629,0.21002
606.05650,0.23444
604.56671,0.26196
603.07692,0.29325
601.58714,0.31278
600.09735,0.33234
598.60756,0.37075
597.11777,0.40346
595.62798,0.39016
594.13819,0.38075
592.64840,0.37135
591.15862,0.36518
589.66883,0.31983
588.17904,0.29433
586.68925,0.27226
585.19946,0.25022
583.70967,0.19066
582.21989,0.13794
580.73010,0.12456
579.24031,0.11121
577.75052,0.07707
576.26073,0.05528
574.77094,0.04542
573.28115,0.05165
571.79137,0.05791
570.30158,0.05627
568.81179,0.07359
567.32200,0.09358
565.83221,0.11359
564.34242,0.13010
562.85264,0.16161
561.36285,0.15990
559.87306,0.16514
558.38327,0.17041
556.89348,0.18088
555.40369,0.18235
553.91391,0.19342
552.42412,0.20451
550.93433,0.19988
549.44454,0.17524
547.95475,0.18123
546.46496,0.19242
544.97517,0.20364
543.48539,0.23591
541.99560,0.29442
540.50581,0.30032
539.01602,0.30624
537.52623,0.33751
536.03644,0.36638
534.54666,0.39946
533.05687,0.41880
531.56708,0.43817
530.07729,0.49731
528.58750,0.52389
527.09771,0.55302
525.60792,0.58217
524.11814,0.60970
522.62835,0.66743
521.13856,0.71901
519.64877,0.74595
518.15898,0.77292
516.66919,0.79770
515.17941,0.84366
513.68962,0.84493
512.19983,0.84623
510.71004,0.78809
509.22025,0.74275
507.73046,0.65448
506.24068,0.62020
504.75089,0.58595
503.26110,0.46781
501.77131,0.35872
500.28152,0.31242
498.79173,0.26615
497.30194,0.21969
495.81216,0.17501
494.32237,0.15942
492.83258,0.14386
491.34279,0.09243
489.85300,0.07581
488.36321,0.07706
486.87343,0.07294
485.38364,0.06885
483.89385,0.09286
482.40406,0.10367
480.91427,0.10868
479.42448,0.11371
477.93469,0.13848
476.44491,0.17979
474.95512,0.18721
473.46533,0.19465
471.97554,0.19463
470.48575,0.19353
468.99596,0.20347
467.50618,0.18800
466.01639,0.17255
464.52660,0.15614
463.03681,0.12918
461.54702,0.12371
460.05723,0.11827
458.56745,0.05857
457.07766,0.05792
455.58787,0.05266
454.09808,0.04743
452.60829,0.00831
451.11850,0.00599
449.62871,0.00622
448.13893,0.00648
446.64914,0.00908
445.15935,0.04275
443.66956,0.04430
442.17977,0.03904
440.68998,0.03381
439.20020,0.04533
437.71041,0.02936
436.22062,0.03268
434.73083,0.03602
433.24104,0.05095
431.75125,0.07340
430.26146,0.05512
428.77168,0.03687
427.28189,0.05102
425.79210,0.04669
424.30231,0.04250
422.81252,0.03833
421.32273,0.04927
419.83295,0.04637
418.34316,0.04150
416.85337,0.03666
415.36358,0.04506
413.87379,0.05194
412.38400,0.04663
410.89422,0.04134
409.40443,0.04565
407.91464,0.04558
406.42485,0.03343
404.93506,0.02713
403.44527,0.02086
401.95548,0.03565
400.46570,0.04649
398.97591,0.04492
397.48612,0.04338
395.99633,0.04152
394.50654,0.02230
393.01675,0.02633
391.52697,0.02908
390.03718,0.02998
388.54739,0.03839
387.05760,0.03163
385.56781,0.02489
384.07802,0.01752
382.58824,0.00775
381.09845,0.00686
379.60866,0.00599
378.11887,0.00932
376.62908,0.03359
375.13929,0.03763
373.64950,0.04170
372.15972,0.03764
370.66993,0.02677
369.18014,0.02266
367.69035,0.01856
366.20056,0.05281
364.71077,0.04854
363.22099,0.04529
361.73120,0.04207
360.24141,0.03435
358.75162,0.01367
357.26183,0.02362
355.77204,0.03360
354.28225,0.07487
352.79247,0.08269
351.30268,0.08493
349.81289,0.08718
348.32310,0.10147
346.83331,0.08208
345.34352,0.06602
343.85374,0.04999
342.36395,0.04014
340.87416,0.04178
339.38437,0.02967
337.89458,0.01759
336.40479,0.03251
334.91501,0.04613
333.42522,0.03765
331.93543,0.02919
330.44564,0.02395
328.95585,0.03371
327.46606,0.05252
325.97627,0.07136
324.48649,0.06445
322.99670,0.04105
321.50691,0.04048
320.01712,0.03992
318.52733,0.05976
317.03754,0.03933
315.54776,0.05988
314.05797,0.08045
312.56818,0.13475
311.07839,0.12762
309.58860,0.11359
308.09881,0.09958
306.60902,0.08261
305.11924,0.06326
303.62945,0.03930
302.13966,0.01536
300.64987,0.00599
299.16008,0.00599
